4000.0	95.1374969482
3998.0	95.3182220459
3996.0	95.5621490479
3994.0	95.8303451538
3992.0	96.0684051514
3990.0	96.2437591553
3988.0	96.3510742188
3986.0	96.3927764893
3984.0	96.3746795654
3982.0	96.3063735962
3980.0	96.200630188
3978.0	96.0761795044
3976.0	95.9506759644
3974.0	95.8459854126
3972.0	95.7720031738
3970.0	95.7185058594
3968.0	95.674156189
3966.0	95.635559082
3964.0	95.6010131836
3962.0	95.5772857666
3960.0	95.58644104
3958.0	95.6230392456
3956.0	95.6751556396
3954.0	95.7378616333
3952.0	95.8023529053
3950.0	95.8604125977
3948.0	95.9418563843
3946.0	96.0391082764
3944.0	96.1011886597
3942.0	96.1731643677
3940.0	96.272277832
3938.0	96.3542251587
3936.0	96.4270324707
3934.0	96.4657058716
3932.0	96.4881896973
3930.0	96.5351791382
3928.0	96.5737075806
3926.0	96.5475311279
3924.0	96.4883117676
3922.0	96.4443206787
3920.0	96.3696975708
3918.0	96.2635955811
3916.0	96.1788864136
3914.0	96.1406478882
3912.0	96.0869522095
3910.0	96.0020523071
3908.0	95.8956451416
3906.0	95.7473983765
3904.0	95.5926437378
3902.0	95.5249786377
3900.0	95.5411911011
3898.0	95.6526031494
3896.0	95.7918624878
3894.0	95.855140686
3892.0	95.8956985474
3890.0	96.0506668091
3888.0	96.176574707
3886.0	96.2493209839
3884.0	96.4234085083
3882.0	96.5112457275
3880.0	96.6096191406
3878.0	96.7945098877
3876.0	96.8621749878
3874.0	96.8596191406
3872.0	96.8578567505
3870.0	96.8099822998
3868.0	96.8347091675
3866.0	96.8317718506
3864.0	96.733001709
3862.0	96.6731796265
3860.0	96.6443557739
3858.0	96.559928894
3856.0	96.4136352539
3854.0	96.1228637695
3852.0	95.9306488037
3850.0	95.9955215454
3848.0	96.0269699097
3846.0	95.9731826782
3844.0	95.8583602905
3842.0	95.7536010742
3840.0	95.6621627808
3838.0	95.6455001831
3836.0	95.7319030762
3834.0	95.8304443359
3832.0	95.9146499634
3830.0	96.0297317505
3828.0	96.1042175293
3826.0	96.1782455444
3824.0	96.2303161621
3822.0	96.191696167
3820.0	96.2781677246
3818.0	96.3966369629
3816.0	96.4508972168
3814.0	96.5850830078
3812.0	96.6675491333
3810.0	96.666885376
3808.0	96.5726623535
3806.0	96.4549331665
3804.0	96.3939208984
3802.0	96.2326507568
3800.0	96.1122055054
3798.0	96.1007385254
3796.0	96.0475692749
3794.0	96.0383453369
3792.0	96.0427246094
3790.0	96.0174560547
3788.0	95.9850997925
3786.0	95.9488601685
3784.0	95.940826416
3782.0	95.9602127075
3780.0	95.9606170654
3778.0	96.0313339233
3776.0	96.1415023804
3774.0	96.2243347168
3772.0	96.2573776245
3770.0	96.3028869629
3768.0	96.4280395508
3766.0	96.5391845703
3764.0	96.6880569458
3762.0	96.7976303101
3760.0	96.8473892212
3758.0	96.9526977539
3756.0	97.070602417
3754.0	97.1005401611
3752.0	97.0119934082
3750.0	96.9624023438
3748.0	97.002456665
3746.0	96.9630508423
3744.0	96.7656860352
3742.0	96.7437515259
3740.0	96.7273712158
3738.0	96.5759506226
3736.0	96.2829589844
3734.0	96.0821380615
3732.0	96.0427780151
3730.0	96.0278244019
3728.0	95.9454040527
3726.0	95.7833251953
3724.0	95.674369812
3722.0	95.6487426758
3720.0	95.7300643921
3718.0	95.8907394409
3716.0	96.0618515015
3714.0	96.1397399902
3712.0	96.186088562
3710.0	96.3258056641
3708.0	96.5008468628
3706.0	96.5967407227
3704.0	96.5868988037
3702.0	96.5593795776
3700.0	96.6374664307
3698.0	96.7609405518
3696.0	96.8739471436
3694.0	96.9473571777
3692.0	96.9073791504
3690.0	96.7925338745
3688.0	96.6909866333
3686.0	96.6308135986
3684.0	96.5188293457
3682.0	96.3280410767
3680.0	96.0845031738
3678.0	95.8387145996
3676.0	95.5576400757
3674.0	95.388343811
3672.0	95.4033813477
3670.0	95.3109970093
3668.0	95.3178405762
3666.0	95.4045791626
3664.0	95.4235992432
3662.0	95.3915100098
3660.0	95.3365097046
3658.0	95.2298431396
3656.0	95.1126785278
3654.0	95.0267791748
3652.0	94.8316802979
3650.0	94.5904006958
3648.0	94.5760040283
3646.0	94.8431243896
3644.0	95.2139358521
3642.0	95.6484832764
3640.0	96.1267929077
3638.0	96.5527496338
3636.0	96.8568344116
3634.0	97.0170288086
3632.0	97.058555603
3630.0	96.915725708
3628.0	96.6587753296
3626.0	96.5442428589
3624.0	96.3669281006
3622.0	96.0945358276
3620.0	95.8084793091
3618.0	95.6932525635
3616.0	95.8176345825
3614.0	95.975402832
3612.0	96.1133956909
3610.0	96.2112197876
3608.0	96.2534408569
3606.0	96.3490219116
3604.0	96.4533309937
3602.0	96.4942016602
3600.0	96.5394744873
3598.0	96.6119308472
3596.0	96.6689834595
3594.0	96.7777023315
3592.0	96.9385375977
3590.0	97.0333099365
3588.0	97.1041183472
3586.0	97.3200531006
3584.0	97.558807373
3582.0	97.7205047607
3580.0	97.844078064
3578.0	97.9458770752
3576.0	98.0197906494
3574.0	98.0705718994
3572.0	98.0895080566
3570.0	98.0353622437
3568.0	97.8669891357
3566.0	97.7110595703
3564.0	97.6670227051
3562.0	97.6005096436
3560.0	97.4797744751
3558.0	97.3532180786
3556.0	97.2359619141
3554.0	97.1150894165
3552.0	97.009803772
3550.0	96.9540863037
3548.0	96.9016342163
3546.0	96.8657226562
3544.0	96.9055862427
3542.0	96.9906082153
3540.0	97.078414917
3538.0	97.1661529541
3536.0	97.2807922363
3534.0	97.4233398438
3532.0	97.5527267456
3530.0	97.6686477661
3528.0	97.7873077393
3526.0	97.9143829346
3524.0	98.0247497559
3522.0	98.1218795776
3520.0	98.1902389526
3518.0	98.2186584473
3516.0	98.2144088745
3514.0	98.1750946045
3512.0	98.090385437
3510.0	97.9647903442
3508.0	97.8341369629
3506.0	97.6999282837
3504.0	97.5300292969
3502.0	97.3607788086
3500.0	97.2178192139
3498.0	97.0768203735
3496.0	96.9312667847
3494.0	96.8056411743
3492.0	96.7108230591
3490.0	96.6362457275
3488.0	96.5903015137
3486.0	96.5839157104
3484.0	96.5971221924
3482.0	96.6395645142
3480.0	96.7327575684
3478.0	96.8438873291
3476.0	96.9500808716
3474.0	97.0741271973
3472.0	97.2127456665
3470.0	97.3582305908
3468.0	97.4935760498
3466.0	97.6052246094
3464.0	97.6905822754
3462.0	97.7637023926
3460.0	97.8202133179
3458.0	97.8350906372
3456.0	97.8079299927
3454.0	97.7484436035
3452.0	97.6482391357
3450.0	97.5103149414
3448.0	97.3316192627
3446.0	97.1372375488
3444.0	96.9611434937
3442.0	96.7935333252
3440.0	96.6534576416
3438.0	96.5556182861
3436.0	96.4979858398
3434.0	96.4727401733
3432.0	96.469619751
3430.0	96.4978942871
3428.0	96.557258606
3426.0	96.6380386353
3424.0	96.737739563
3422.0	96.8548049927
3420.0	96.9940185547
3418.0	97.1546173096
3416.0	97.3176269531
3414.0	97.4827270508
3412.0	97.6448745728
3410.0	97.7942962646
3408.0	97.9273529053
3406.0	98.0418701172
3404.0	98.1312026978
3402.0	98.1972961426
3400.0	98.2353897095
3398.0	98.2341308594
3396.0	98.189994812
3394.0	98.1118164062
3392.0	98.0078735352
3390.0	97.8850631714
3388.0	97.7343826294
3386.0	97.5666046143
3384.0	97.3989715576
3382.0	97.2465515137
3380.0	97.1147766113
3378.0	97.0037460327
3376.0	96.9190826416
3374.0	96.8645782471
3372.0	96.8411712646
3370.0	96.8514709473
3368.0	96.8874206543
3366.0	96.9447402954
3364.0	97.0232467651
3362.0	97.1337280273
3360.0	97.2689666748
3358.0	97.4155426025
3356.0	97.5619049072
3354.0	97.7218399048
3352.0	97.882484436
3350.0	98.0304260254
3348.0	98.1414108276
3346.0	98.229888916
3344.0	98.2958526611
3342.0	98.3303527832
3340.0	98.3271331787
3338.0	98.2889404297
3336.0	98.2013931274
3334.0	98.0824203491
3332.0	97.9437103271
3330.0	97.7858276367
3328.0	97.6186523438
3326.0	97.4545440674
3324.0	97.2911834717
3322.0	97.132850647
3320.0	96.9894180298
3318.0	96.8723297119
3316.0	96.7850952148
3314.0	96.7301864624
3312.0	96.7102050781
3310.0	96.7247695923
3308.0	96.7758178711
3306.0	96.8628387451
3304.0	96.96875
3302.0	97.0940322876
3300.0	97.2325057983
3298.0	97.3854064941
3296.0	97.5487670898
3294.0	97.7087020874
3292.0	97.8557357788
3290.0	97.9843139648
3288.0	98.080871582
3286.0	98.1448898315
3284.0	98.1721420288
3282.0	98.1612701416
3280.0	98.1126785278
3278.0	98.0223922729
3276.0	97.895072937
3274.0	97.7418899536
3272.0	97.5696792603
3270.0	97.386505127
3268.0	97.1888580322
3266.0	96.989730835
3264.0	96.8046417236
3262.0	96.6411132812
3260.0	96.5048065186
3258.0	96.4045257568
3256.0	96.339225769
3254.0	96.3090209961
3252.0	96.3178405762
3250.0	96.3689804077
3248.0	96.4508514404
3246.0	96.5580215454
3244.0	96.6868133545
3242.0	96.8374252319
3240.0	97.0010070801
3238.0	97.1671829224
3236.0	97.3345794678
3234.0	97.4964370728
3232.0	97.6216812134
3230.0	97.7022628784
3228.0	97.7493515015
3226.0	97.7593688965
3224.0	97.7278747559
3222.0	97.6479492188
3220.0	97.5237884521
3218.0	97.3609924316
3216.0	97.1590042114
3214.0	96.9288787842
3212.0	96.67578125
3210.0	96.4059371948
3208.0	96.1334457397
3206.0	95.8761444092
3204.0	95.6400375366
3202.0	95.447227478
3200.0	95.3119735718
3198.0	95.246383667
3196.0	95.2542800903
3194.0	95.31199646
3192.0	95.3913421631
3190.0	95.487953186
3188.0	95.59349823
3186.0	95.7065582275
3184.0	95.8394546509
3182.0	95.9889373779
3180.0	96.1351623535
3178.0	96.2604064941
3176.0	96.3431854248
3174.0	96.3499526978
3172.0	96.2466278076
3170.0	95.9959030151
3168.0	95.5707092285
3166.0	95.0010070801
3164.0	94.4293289185
3162.0	94.069480896
3160.0	94.0302124023
3158.0	94.1957473755
3156.0	94.3635482788
3154.0	94.4211502075
3152.0	94.3636398315
3150.0	94.2327270508
3148.0	94.0767745972
3146.0	93.9357299805
3144.0	93.8247680664
3142.0	93.7464752197
3140.0	93.694732666
3138.0	93.6689834595
3136.0	93.6547546387
3134.0	93.6398468018
3132.0	93.6269302368
3130.0	93.59715271
3128.0	93.5236663818
3126.0	93.3804016113
3124.0	93.1335220337
3122.0	92.7296905518
3120.0	92.0975189209
3118.0	91.1377182007
3116.0	89.7273101807
3114.0	87.7097625732
3112.0	84.9246520996
3110.0	81.2665939331
3108.0	76.9351730347
3106.0	72.731086731
3104.0	69.8693771362
3102.0	69.1279144287
3100.0	70.0567703247
3098.0	71.3471374512
3096.0	71.7724761963
3094.0	70.5426940918
3092.0	67.1330718994
3090.0	61.2348327637
3088.0	53.1028289795
3086.0	44.0866012573
3084.0	36.7074966431
3082.0	33.7872009277
3080.0	36.1600875854
3078.0	41.4301147461
3076.0	46.24974823
3074.0	48.7613220215
3072.0	48.7190475464
3070.0	46.3939666748
3068.0	41.9771652222
3066.0	35.9295845032
3064.0	29.4225921631
3062.0	24.1386890411
3060.0	21.7962989807
3058.0	23.3739624023
3056.0	28.3255577087
3054.0	34.7374916077
3052.0	40.81590271
3050.0	45.8326339722
3048.0	49.5871543884
3046.0	51.6951065063
3044.0	51.7268676758
3042.0	49.6219406128
3040.0	45.6894874573
3038.0	40.2761917114
3036.0	33.5491638184
3034.0	25.915813446
3032.0	18.33751297
3030.0	12.1539115906
3028.0	8.42795372009
3026.0	7.02250003815
3024.0	7.70571231842
3022.0	11.9512319565
3020.0	20.0281867981
3018.0	30.506778717
3016.0	41.165184021
3014.0	50.2156257629
3012.0	56.7555923462
3010.0	60.4437828064
3008.0	61.2711677551
3006.0	59.5719566345
3004.0	56.3307762146
3002.0	53.6088485718
3000.0	54.0084609985
2998.0	58.5933685303
2996.0	65.4493331909
2994.0	71.7675704956
2992.0	76.2621612549
2990.0	79.112197876
2988.0	80.8427352905
2986.0	81.7737350464
2984.0	82.0628433228
2982.0	81.816192627
2980.0	81.149887085
2978.0	80.2855224609
2976.0	79.5131912231
2974.0	78.9286880493
2972.0	78.3082733154
2970.0	77.4018554688
2968.0	76.1081695557
2966.0	74.44896698
2964.0	72.4493026733
2962.0	70.1106109619
2960.0	67.4076538086
2958.0	64.3059692383
2956.0	60.7586860657
2954.0	56.7241439819
2952.0	52.2022476196
2950.0	47.2489852905
2948.0	41.948223114
2946.0	36.4823570251
2944.0	31.0827980042
2942.0	25.9798526764
2940.0	21.2762107849
2938.0	17.0808315277
2936.0	13.4901762009
2934.0	10.675740242
2932.0	8.53664875031
2930.0	7.07232952118
2928.0	6.2221288681
2926.0	5.92565536499
2924.0	5.69295883179
2922.0	5.62119483948
2920.0	5.56857585907
2918.0	5.78062534332
2916.0	6.34894371033
2914.0	7.41555690765
2912.0	8.95357131958
2910.0	10.9369754791
2908.0	13.293671608
2906.0	16.0590171814
2904.0	19.2771682739
2902.0	22.9548683167
2900.0	27.0063171387
2898.0	31.1724891663
2896.0	35.1295013428
2894.0	38.6415710449
2892.0	41.6614761353
2890.0	44.2826766968
2888.0	46.6298103333
2886.0	48.8193054199
2884.0	50.9214401245
2882.0	53.0057182312
2880.0	55.0924301147
2878.0	57.1520805359
2876.0	59.069896698
2874.0	60.6923332214
2872.0	61.8369827271
2870.0	62.3262405396
2868.0	61.9875411987
2866.0	60.6857070923
2864.0	58.3505172729
2862.0	55.0525894165
2860.0	51.0257720947
2858.0	46.6780891418
2856.0	42.4722213745
2854.0	38.862323761
2852.0	36.2582702637
2850.0	35.01171875
2848.0	35.487651825
2846.0	38.0722045898
2844.0	42.9911613464
2842.0	50.0521430969
2840.0	58.4204902649
2838.0	66.8139953613
2836.0	74.0518341064
2834.0	79.5235900879
2832.0	83.2452774048
2830.0	85.5852127075
2828.0	86.9809875488
2826.0	87.7857208252
2824.0	88.240814209
2822.0	88.4975891113
2820.0	88.6415939331
2818.0	88.7311706543
2816.0	88.7985687256
2814.0	88.8729324341
2812.0	88.9848251343
2810.0	89.1714782715
2808.0	89.4615859985
2806.0	89.8579559326
2804.0	90.3354873657
2802.0	90.8604354858
2800.0	91.3946151733
2798.0	91.9083099365
2796.0	92.3730392456
2794.0	92.7735595703
2792.0	93.0963287354
2790.0	93.3247070312
2788.0	93.4432525635
2786.0	93.4485168457
2784.0	93.3542251587
2782.0	93.1964187622
2780.0	93.0269012451
2778.0	92.8977737427
2776.0	92.8421936035
2774.0	92.8448410034
2772.0	92.8660125732
2770.0	92.880821228
2768.0	92.8834457397
2766.0	92.8836135864
2764.0	92.8955535889
2762.0	92.939994812
2760.0	93.0290679932
2758.0	93.1662826538
2756.0	93.3463363647
2754.0	93.5660629272
2752.0	93.8237457275
2750.0	94.1129226685
2748.0	94.4044570923
2746.0	94.6735839844
2744.0	94.9155807495
2742.0	95.1202850342
2740.0	95.2676544189
2738.0	95.3519134521
2736.0	95.3647842407
2734.0	95.3047485352
2732.0	95.1954574585
2730.0	95.0503845215
2728.0	94.8734741211
2726.0	94.6654815674
2724.0	94.4189071655
2722.0	94.1507568359
2720.0	93.8804855347
2718.0	93.6212310791
2716.0	93.3851242065
2714.0	93.1787948608
2712.0	93.0087585449
2710.0	92.8812026978
2708.0	92.7911987305
2706.0	92.7444229126
2704.0	92.743637085
2702.0	92.786026001
2700.0	92.8703765869
2698.0	92.9944534302
2696.0	93.153427124
2694.0	93.3471908569
2692.0	93.5706863403
2690.0	93.8127288818
2688.0	94.0660247803
2686.0	94.3210372925
2684.0	94.5641479492
2682.0	94.7836914062
2680.0	94.9618606567
2678.0	95.0764389038
2676.0	95.120475769
2674.0	95.0985641479
2672.0	95.0188369751
2670.0	94.9041137695
2668.0	94.7701416016
2666.0	94.6043014526
2664.0	94.3913726807
2662.0	94.1397399902
2660.0	93.8688964844
2658.0	93.5980834961
2656.0	93.3418502808
2654.0	93.1161422729
2652.0	92.9320831299
2650.0	92.7967300415
2648.0	92.7177886963
2646.0	92.700340271
2644.0	92.7423706055
2642.0	92.8159255981
2640.0	92.8807983398
2638.0	92.8960113525
2636.0	92.8495407104
2634.0	92.7870025635
2632.0	92.8369522095
2630.0	93.1321640015
2628.0	93.6629562378
2626.0	94.2602615356
2624.0	94.7774429321
2622.0	95.172668457
2620.0	95.4478530884
2618.0	95.5975265503
2616.0	95.6151275635
2614.0	95.4936523438
2612.0	95.2284317017
2610.0	94.8244781494
2608.0	94.3147888184
2606.0	93.7765350342
2604.0	93.3197937012
2602.0	93.0402069092
2600.0	92.9555892944
2598.0	93.0106201172
2596.0	93.1220779419
2594.0	93.2239532471
2592.0	93.2791976929
2590.0	93.2793884277
2588.0	93.2218322754
2586.0	93.1087722778
2584.0	92.9694671631
2582.0	92.9040679932
2580.0	93.063041687
2578.0	93.488571167
2576.0	94.0386505127
2574.0	94.5527572632
2572.0	94.9738769531
2570.0	95.3103561401
2568.0	95.5794830322
2566.0	95.7908630371
2564.0	95.9520111084
2562.0	96.0684280396
2560.0	96.1339950562
2558.0	96.1398849487
2556.0	96.0725097656
2554.0	95.9232559204
2552.0	95.6922073364
2550.0	95.3986434937
2548.0	95.078994751
2546.0	94.7782287598
2544.0	94.5254364014
2542.0	94.3254699707
2540.0	94.1517333984
2538.0	93.9851074219
2536.0	93.8258666992
2534.0	93.6929473877
2532.0	93.5995559692
2530.0	93.549987793
2528.0	93.5458679199
2526.0	93.5897140503
2524.0	93.6817855835
2522.0	93.8252182007
2520.0	94.0185089111
2518.0	94.2487945557
2516.0	94.4999465942
2514.0	94.7566757202
2512.0	95.0088043213
2510.0	95.2558517456
2508.0	95.5013961792
2506.0	95.7449645996
2504.0	95.9687957764
2502.0	96.1473922729
2500.0	96.2556838989
2498.0	96.2795028687
2496.0	96.2179412842
2494.0	96.0909347534
2492.0	95.9205169678
2490.0	95.7211761475
2488.0	95.4941711426
2486.0	95.2466278076
2484.0	94.9964981079
2482.0	94.7691955566
2480.0	94.5819625854
2478.0	94.4426803589
2476.0	94.356086731
2474.0	94.3256378174
2472.0	94.3523406982
2470.0	94.4379119873
2468.0	94.580696106
2466.0	94.7742233276
2464.0	95.0124511719
2462.0	95.2857055664
2460.0	95.581817627
2458.0	95.8891906738
2456.0	96.1932220459
2454.0	96.4906921387
2452.0	96.7876205444
2450.0	97.0827102661
2448.0	97.3495025635
2446.0	97.5624542236
2444.0	97.7077713013
2442.0	97.7834472656
2440.0	97.7874069214
2438.0	97.7210769653
2436.0	97.589515686
2434.0	97.4056930542
2432.0	97.1781463623
2430.0	96.9173660278
2428.0	96.6326980591
2426.0	96.3346481323
2424.0	96.034072876
2422.0	95.7437515259
2420.0	95.4801330566
2418.0	95.2582855225
2416.0	95.0856704712
2414.0	94.9692001343
2412.0	94.9161300659
2410.0	94.9266433716
2408.0	94.9976196289
2406.0	95.1291046143
2404.0	95.3182220459
2402.0	95.5580978394
2400.0	95.8369293213
2398.0	96.1433181763
2396.0	96.4609375
2394.0	96.7737426758
2392.0	97.065612793
2390.0	97.3174362183
2388.0	97.5070495605
2386.0	97.6162872314
2384.0	97.6303100586
2382.0	97.5528945923
2380.0	97.3924636841
2378.0	97.1458892822
2376.0	96.7914810181
2374.0	96.3165054321
2372.0	95.7079162598
2370.0	94.9608764648
2368.0	94.0923690796
2366.0	93.1604156494
2364.0	92.2801971436
2362.0	91.6141281128
2360.0	91.262008667
2358.0	91.3099975586
2356.0	91.7207946777
2354.0	92.215057373
2352.0	92.7167892456
2350.0	93.0860061646
2348.0	93.1727905273
2346.0	92.9987945557
2344.0	92.6781616211
2342.0	92.3852233887
2340.0	92.170715332
2338.0	92.0947113037
2336.0	92.355682373
2334.0	93.0263290405
2332.0	93.9778823853
2330.0	94.9683456421
2328.0	95.7550506592
2326.0	96.2959060669
2324.0	96.5917129517
2322.0	96.6647644043
2320.0	96.4956970215
2318.0	96.1235961914
2316.0	95.6141967773
2314.0	95.0536270142
2312.0	94.5797195435
2310.0	94.3592071533
2308.0	94.4023590088
2306.0	94.5630569458
2304.0	94.6749420166
2302.0	94.663192749
2300.0	94.5566177368
2298.0	94.4243469238
2296.0	94.3204650879
2294.0	94.2897796631
2292.0	94.365020752
2290.0	94.5626983643
2288.0	94.8618392944
2286.0	95.2358016968
2284.0	95.6430435181
2282.0	96.0510025024
2280.0	96.4542160034
2278.0	96.8434295654
2276.0	97.2013015747
2274.0	97.5175628662
2272.0	97.7748184204
2270.0	97.9639053345
2268.0	98.0748138428
2266.0	98.1053085327
2264.0	98.0558624268
2262.0	97.928527832
2260.0	97.7308731079
2258.0	97.4793395996
2256.0	97.1895217896
2254.0	96.8830337524
2252.0	96.581741333
2250.0	96.2938995361
2248.0	96.0232467651
2246.0	95.7740783691
2244.0	95.5463867188
2242.0	95.3491897583
2240.0	95.1945800781
2238.0	95.0938262939
2236.0	95.0517883301
2234.0	95.0761566162
2232.0	95.1729507446
2230.0	95.3481445312
2228.0	95.5955734253
2226.0	95.9097137451
2224.0	96.2721328735
2222.0	96.6666259766
2220.0	97.0698852539
2218.0	97.459815979
2216.0	97.8161315918
2214.0	98.1286010742
2212.0	98.392868042
2210.0	98.6141662598
2208.0	98.7910308838
2206.0	98.9139099121
2204.0	98.9590911865
2202.0	98.9054946899
2200.0	98.7490386963
2198.0	98.4983215332
2196.0	98.1697311401
2194.0	97.7824249268
2192.0	97.3554382324
2190.0	96.9085235596
2188.0	96.4684753418
2186.0	96.0740585327
2184.0	95.7555084229
2182.0	95.5352783203
2180.0	95.4131622314
2178.0	95.3776855469
2176.0	95.4105834961
2174.0	95.5104141235
2172.0	95.6751327515
2170.0	95.9114303589
2168.0	96.2080459595
2166.0	96.5540161133
2164.0	96.9354858398
2162.0	97.3375320435
2160.0	97.74243927
2158.0	98.1342544556
2156.0	98.4987716675
2154.0	98.8199462891
2152.0	99.086807251
2150.0	99.2822875977
2148.0	99.4007797241
2146.0	99.4329681396
2144.0	99.3819732666
2142.0	99.249961853
2140.0	99.0427017212
2138.0	98.7688293457
2136.0	98.4416732788
2134.0	98.0757980347
2132.0	97.6865310669
2130.0	97.2913513184
2128.0	96.9077835083
2126.0	96.5553741455
2124.0	96.2560653687
2122.0	96.0204162598
2120.0	95.8602676392
2118.0	95.7830429077
2116.0	95.7963943481
2114.0	95.9035186768
2112.0	96.1019515991
2110.0	96.3866958618
2108.0	96.7334289551
2106.0	97.1315841675
2104.0	97.553894043
2102.0	97.9982376099
2100.0	98.4329223633
2098.0	98.85206604
2096.0	99.2228012085
2094.0	99.5391387939
2092.0	99.7796554565
2090.0	99.9356002808
2088.0	100.0
2086.0	99.9672622681
2084.0	99.8378982544
2082.0	99.6191482544
2080.0	99.3178100586
2078.0	98.9450683594
2076.0	98.517868042
2074.0	98.0668563843
2072.0	97.6106643677
2070.0	97.1755523682
2068.0	96.7738876343
2066.0	96.4204788208
2064.0	96.1378555298
2062.0	95.9445724487
2060.0	95.835899353
2058.0	95.8186416626
2056.0	95.8948135376
2054.0	96.0602035522
2052.0	96.305557251
2050.0	96.6219940186
2048.0	96.9937057495
2046.0	97.4013824463
2044.0	97.8225708008
2042.0	98.2402572632
2040.0	98.6397018433
2038.0	98.9930877686
2036.0	99.2800216675
2034.0	99.4938583374
2032.0	99.6291885376
2030.0	99.690032959
2028.0	99.671913147
2026.0	99.5672912598
2024.0	99.3710784912
2022.0	99.0868835449
2020.0	98.7212219238
2018.0	98.2782592773
2016.0	97.785118103
2014.0	97.2815551758
2012.0	96.772857666
2010.0	96.2902297974
2008.0	95.8705215454
2006.0	95.5377349854
2004.0	95.2967910767
2002.0	95.1386947632
2000.0	95.0515518188
1998.0	95.0215606689
1996.0	95.0251846313
1994.0	95.0248718262
1992.0	95.0037994385
1990.0	94.9910888672
1988.0	95.0092086792
1986.0	95.1421737671
1984.0	95.4476089478
1982.0	95.8565673828
1980.0	96.2458877563
1978.0	96.5154190063
1976.0	96.5633163452
1974.0	96.2641448975
1972.0	95.5246887207
1970.0	94.3550796509
1968.0	92.8360214233
1966.0	91.12525177
1964.0	89.4602813721
1962.0	87.9404754639
1960.0	86.6267471313
1958.0	85.517074585
1956.0	84.5204086304
1954.0	83.4843597412
1952.0	82.2923431396
1950.0	80.8743743896
1948.0	79.3383865356
1946.0	77.9185562134
1944.0	76.9875488281
1942.0	76.8703460693
1940.0	77.7729492188
1938.0	79.5165786743
1936.0	81.8360595703
1934.0	84.3158950806
1932.0	86.6436462402
1930.0	88.623046875
1928.0	90.2573318481
1926.0	91.6076202393
1924.0	92.7715759277
1922.0	93.8842086792
1920.0	94.8648910522
1918.0	95.733215332
1916.0	96.4973678589
1914.0	97.0239639282
1912.0	97.3063201904
1910.0	97.3600158691
1908.0	97.204826355
1906.0	96.859954834
1904.0	96.2884902954
1902.0	95.5009689331
1900.0	94.4941558838
1898.0	93.2957382202
1896.0	91.9148406982
1894.0	90.4176483154
1892.0	88.9461288452
1890.0	87.48853302
1888.0	86.1625900269
1886.0	85.1480941772
1884.0	84.3280105591
1882.0	83.7035217285
1880.0	83.2199325562
1878.0	82.8081359863
1876.0	82.4180603027
1874.0	82.0684661865
1872.0	81.8378448486
1870.0	81.8557739258
1868.0	82.4093093872
1866.0	83.5895996094
1864.0	85.2514724731
1862.0	87.2949829102
1860.0	89.5001144409
1858.0	91.6258087158
1856.0	93.4734573364
1854.0	94.9471435547
1852.0	96.0286636353
1850.0	96.743560791
1848.0	97.135017395
1846.0	97.2481689453
1844.0	97.1173019409
1842.0	96.9075927734
1840.0	96.5707550049
1838.0	96.017074585
1836.0	95.3210830688
1834.0	94.5363769531
1832.0	93.6605224609
1830.0	92.602897644
1828.0	91.5869216919
1826.0	90.6771697998
1824.0	89.6903991699
1822.0	88.8431091309
1820.0	88.0437164307
1818.0	87.2486114502
1816.0	86.4973754883
1814.0	85.7696075439
1812.0	85.0070495605
1810.0	84.2027664185
1808.0	83.4783096313
1806.0	82.8673858643
1804.0	82.5162658691
1802.0	82.5751800537
1800.0	83.3379745483
1798.0	84.7881317139
1796.0	86.7122879028
1794.0	88.802406311
1792.0	91.1562957764
1790.0	93.2420272827
1788.0	94.601348877
1786.0	95.3938980103
1784.0	95.6958084106
1782.0	95.5580215454
1780.0	95.0464477539
1778.0	94.4092483521
1776.0	93.8142318726
1774.0	93.3444290161
1772.0	93.0391769409
1770.0	92.9248352051
1768.0	92.7495269775
1766.0	92.4114685059
1764.0	91.9731369019
1762.0	91.3274993896
1760.0	90.6690826416
1758.0	90.0300979614
1756.0	89.2789611816
1754.0	88.630531311
1752.0	87.9832763672
1750.0	87.4407043457
1748.0	87.2680664062
1746.0	87.4546279907
1744.0	87.9185943604
1742.0	88.6703491211
1740.0	89.6936416626
1738.0	90.9543762207
1736.0	91.9076690674
1734.0	93.0431594849
1732.0	94.1998443604
1730.0	94.9162445068
1728.0	95.4356231689
1726.0	95.716003418
1724.0	95.7734832764
1722.0	95.7021484375
1720.0	95.4841156006
1718.0	95.0497131348
1716.0	94.6515045166
1714.0	94.4310150146
1712.0	94.1924819946
1710.0	93.8813705444
1708.0	93.5192337036
1706.0	93.1339263916
1704.0	92.9171829224
1702.0	92.7645187378
1700.0	92.7539367676
1698.0	93.0213012695
1696.0	93.4027404785
1694.0	93.9434967041
1692.0	94.2775039673
1690.0	94.4020004272
1688.0	94.4398880005
1686.0	94.3078536987
1684.0	94.0404205322
1682.0	94.0713424683
1680.0	94.0347442627
1678.0	93.8546905518
1676.0	93.5134887695
1674.0	93.1368331909
1672.0	92.8281097412
1670.0	92.4026489258
1668.0	92.0814743042
1666.0	91.9742126465
1664.0	91.8583831787
1662.0	91.8158035278
1660.0	91.9581451416
1658.0	92.0857925415
1656.0	92.1066513062
1654.0	91.8916702271
1652.0	91.8806304932
1650.0	92.1396713257
1648.0	92.1750564575
1646.0	92.4213180542
1644.0	92.8834915161
1642.0	93.2861328125
1640.0	93.636177063
1638.0	93.8915481567
1636.0	94.1612701416
1634.0	94.706489563
1632.0	95.0932769775
1630.0	95.2325592041
1628.0	95.1722869873
1626.0	94.9806442261
1624.0	94.5653915405
1622.0	93.9781188965
1620.0	93.2771911621
1618.0	92.0492401123
1616.0	89.6974563599
1614.0	86.8432769775
1612.0	82.9294433594
1610.0	76.2619934082
1608.0	65.8135681152
1606.0	51.9557228088
1604.0	37.9697341919
1602.0	28.5488128662
1600.0	30.2258262634
1598.0	40.9163475037
1596.0	53.6711196899
1594.0	63.7150993347
1592.0	70.4685440063
1590.0	74.467590332
1588.0	74.996635437
1586.0	70.8261032104
1584.0	64.8480377197
1582.0	65.3519592285
1580.0	73.2856521606
1578.0	80.3903808594
1576.0	85.0898513794
1574.0	88.0612640381
1572.0	89.9031677246
1570.0	91.5726928711
1568.0	93.104598999
1566.0	94.0888137817
1564.0	94.86353302
1562.0	95.2624588013
1560.0	95.0477828979
1558.0	94.6325531006
1556.0	94.3798294067
1554.0	93.533416748
1552.0	92.3340072632
1550.0	90.8717880249
1548.0	89.3255462646
1546.0	87.975479126
1544.0	86.6978607178
1542.0	85.8254699707
1540.0	85.4958496094
1538.0	85.9687347412
1536.0	86.6055450439
1534.0	87.2329940796
1532.0	88.1127090454
1530.0	88.8649673462
1528.0	89.4200592041
1526.0	89.9344177246
1524.0	90.354850769
1522.0	90.64793396
1520.0	91.0732727051
1518.0	91.3200836182
1516.0	91.3723678589
1514.0	91.2267684937
1512.0	90.6326522827
1510.0	89.5331420898
1508.0	87.6172027588
1506.0	83.5805892944
1504.0	78.8286437988
1502.0	72.825668335
1500.0	62.5838508606
1498.0	46.3165740967
1496.0	25.8351325989
1494.0	10.0021600723
1492.0	8.79876613617
1490.0	21.6566562653
1488.0	36.9410018921
1486.0	51.5693206787
1484.0	63.3856773376
1482.0	72.3116607666
1480.0	77.7655334473
1478.0	80.3814620972
1476.0	81.2939605713
1474.0	81.4662246704
1472.0	81.1003189087
1470.0	80.7860107422
1468.0	80.1503143311
1466.0	79.0471038818
1464.0	76.5781402588
1462.0	72.6730804443
1460.0	65.9110794067
1458.0	53.184009552
1456.0	29.9508571625
1454.0	12.532043457
1452.0	5.69133758545
1450.0	10.4488611221
1448.0	15.3131008148
1446.0	22.2919464111
1444.0	29.5346031189
1442.0	37.8219833374
1440.0	45.4657058716
1438.0	53.0580749512
1436.0	62.4798774719
1434.0	70.5646514893
1432.0	76.7648696899
1430.0	82.2717895508
1428.0	86.3241653442
1426.0	88.8623733521
1424.0	90.5473480225
1422.0	91.5034561157
1420.0	91.8955535889
1418.0	91.9190368652
1416.0	91.8265075684
1414.0	91.4528808594
1412.0	90.9206161499
1410.0	90.2399749756
1408.0	89.5993728638
1406.0	88.9059524536
1404.0	88.2860641479
1402.0	87.7558441162
1400.0	87.214805603
1398.0	86.5583648682
1396.0	85.8131866455
1394.0	84.6535949707
1392.0	83.1276397705
1390.0	81.1471710205
1388.0	78.5326461792
1386.0	75.6594924927
1384.0	73.2998809814
1382.0	71.3546524048
1380.0	69.568107605
1378.0	67.6853637695
1376.0	65.8061523438
1374.0	64.4432525635
1372.0	64.086769104
1370.0	64.4931106567
1368.0	65.1776046753
1366.0	65.8613433838
1364.0	66.5019989014
1362.0	67.2837982178
1360.0	68.2808151245
1358.0	69.3077545166
1356.0	70.0902709961
1354.0	70.3959197998
1352.0	70.3496704102
1350.0	70.2609786987
1348.0	70.4689941406
1346.0	71.1152801514
1344.0	72.1417388916
1342.0	73.2504882812
1340.0	74.1416473389
1338.0	74.4919281006
1336.0	74.0448684692
1334.0	72.8403778076
1332.0	71.2742538452
1330.0	70.0576095581
1328.0	69.8959579468
1326.0	70.8428649902
1324.0	72.2727508545
1322.0	73.527381897
1320.0	74.2776870728
1318.0	74.3923416138
1316.0	73.9759216309
1314.0	73.4099655151
1312.0	73.2267379761
1310.0	73.7434158325
1308.0	74.8277664185
1306.0	76.1038284302
1304.0	77.3365478516
1302.0	78.4929504395
1300.0	79.4890441895
1298.0	80.1023712158
1296.0	80.286857605
1294.0	80.280921936
1292.0	80.3648681641
1290.0	80.6201477051
1288.0	80.9286117554
1286.0	81.107208252
1284.0	81.1136016846
1282.0	81.1212310791
1280.0	81.4048538208
1278.0	82.1359176636
1276.0	83.2638702393
1274.0	84.5647125244
1272.0	85.8470458984
1270.0	87.0332489014
1268.0	88.114074707
1266.0	89.0929946899
1264.0	89.9776916504
1262.0	90.737487793
1260.0	91.3353424072
1258.0	91.7059402466
1256.0	91.8186645508
1254.0	91.6956634521
1252.0	91.4112548828
1250.0	91.0402297974
1248.0	90.6528930664
1246.0	90.2893066406
1244.0	89.967086792
1242.0	89.6812210083
1240.0	89.4156951904
1238.0	89.1391067505
1236.0	88.7999801636
1234.0	88.3690109253
1232.0	87.8660430908
1230.0	87.3547058105
1228.0	86.9243392944
1226.0	86.6631011963
1224.0	86.6103897095
1222.0	86.7311935425
1220.0	86.9254150391
1218.0	87.0922317505
1216.0	87.1723403931
1214.0	87.1317901611
1212.0	86.9369049072
1210.0	86.5604400635
1208.0	85.9597702026
1206.0	85.0743560791
1204.0	83.8769226074
1202.0	82.4700317383
1200.0	81.1497192383
1198.0	80.2525024414
1196.0	79.8606414795
1194.0	79.7369689941
1192.0	79.6129226685
1190.0	79.2915115356
1188.0	78.37159729
1186.0	76.2418746948
1184.0	72.9866943359
1182.0	70.4465179443
1180.0	71.2453613281
1178.0	75.4965057373
1176.0	80.25756073
1174.0	83.2258682251
1172.0	84.4722747803
1170.0	84.8648300171
1168.0	84.8918457031
1166.0	84.6876144409
1164.0	84.1548690796
1162.0	82.9118728638
1160.0	80.2919845581
1158.0	76.0633239746
1156.0	71.8301773071
1154.0	70.8472290039
1152.0	74.5907745361
1150.0	80.5574874878
1148.0	85.5501174927
1146.0	88.8550491333
1144.0	91.2437667847
1142.0	93.1955337524
1140.0	94.7630615234
1138.0	95.8977966309
1136.0	96.616027832
1134.0	96.9785003662
1132.0	97.044708252
1130.0	96.849105835
1128.0	96.4199295044
1126.0	95.7753677368
1124.0	94.9030151367
1122.0	93.7604217529
1120.0	92.3228302002
1118.0	90.6747589111
1116.0	89.0639572144
1114.0	87.8473052979
1112.0	87.2462005615
1110.0	87.2018814087
1108.0	87.4612579346
1106.0	87.7393035889
1104.0	87.8597946167
1102.0	87.7998352051
1100.0	87.6177520752
1098.0	87.3810043335
1096.0	87.139465332
1094.0	86.9087219238
1092.0	86.6411437988
1090.0	86.2164764404
1088.0	85.4753036499
1086.0	84.2432479858
1084.0	82.4392318726
1082.0	80.2133560181
1080.0	77.9020309448
1078.0	75.5752563477
1076.0	72.7172851562
1074.0	69.1484680176
1072.0	65.8601303101
1070.0	64.0288848877
1068.0	64.2351837158
1066.0	66.3483352661
1064.0	69.4862823486
1062.0	72.6127853394
1060.0	75.1692047119
1058.0	77.0695419312
1056.0	78.4722290039
1054.0	79.5574645996
1052.0	80.4515151978
1050.0	81.2129974365
1048.0	81.8709411621
1046.0	82.4284515381
1044.0	82.8447113037
1042.0	82.9534072876
1040.0	82.2975616455
1038.0	79.8507461548
1036.0	74.0330429077
1034.0	64.0733718872
1032.0	52.357006073
1030.0	43.8573379517
1028.0	41.8696174622
1026.0	46.607421875
1024.0	54.5048713684
1022.0	61.6076698303
1020.0	67.0267791748
1018.0	71.2300262451
1016.0	74.544380188
1014.0	77.0961074829
1012.0	78.9752731323
1010.0	80.1040649414
1008.0	80.1449508667
1006.0	78.7808151245
1004.0	77.0418624878
1002.0	77.4470367432
1000.0	80.3754119873
998.0	83.079460144
996.0	84.0755462646
994.0	84.0307922363
992.0	83.5734634399
990.0	82.8666229248
988.0	81.9120635986
986.0	80.6587677002
984.0	79.2864532471
982.0	78.2402496338
980.0	77.9512634277
978.0	78.6331176758
976.0	80.0648956299
974.0	81.487701416
972.0	82.0048828125
970.0	81.2223434448
968.0	79.5470733643
966.0	77.9861907959
964.0	77.6095428467
962.0	78.9486618042
960.0	81.547454834
958.0	84.170791626
956.0	85.870765686
954.0	86.514831543
952.0	86.3444595337
950.0	85.5743408203
948.0	84.3790740967
946.0	83.0360183716
944.0	81.9845199585
942.0	81.649017334
940.0	82.1236877441
938.0	83.1324081421
936.0	84.3011856079
934.0	85.3620071411
932.0	86.1566543579
930.0	86.6152496338
928.0	86.7553024292
926.0	86.6360168457
924.0	86.3128662109
922.0	85.7764968872
920.0	84.8710327148
918.0	83.2223205566
916.0	80.3118209839
914.0	75.7844467163
912.0	69.9189453125
910.0	63.8734092712
908.0	59.5021743774
906.0	58.6143493652
904.0	61.8367424011
902.0	68.1274642944
900.0	75.4716415405
898.0	81.8706283569
896.0	86.2778167725
894.0	88.8209609985
892.0	90.1828994751
890.0	90.9131011963
888.0	91.2950973511
886.0	91.4459228516
884.0	91.4202194214
882.0	91.2662963867
880.0	91.0414733887
878.0	90.8114471436
876.0	90.6324386597
874.0	90.541053772
872.0	90.5623931885
870.0	90.7138595581
868.0	90.9908981323
866.0	91.378616333
864.0	91.8680648804
862.0	92.4136199951
860.0	92.952583313
858.0	93.4131393433
856.0	93.6805038452
854.0	93.5466308594
852.0	92.6731567383
850.0	90.7880554199
848.0	88.0557098389
846.0	85.1562728882
844.0	82.8815460205
842.0	81.8156967163
840.0	82.2769851685
838.0	84.1906585693
836.0	86.9418182373
834.0	89.536239624
832.0	91.1849517822
830.0	91.8044128418
828.0	91.7850265503
826.0	91.5089874268
824.0	91.1993713379
822.0	90.9668197632
820.0	90.8425827026
818.0	90.8370742798
816.0	90.9430770874
814.0	91.1466827393
812.0	91.437461853
810.0	91.7958526611
808.0	92.1879272461
806.0	92.5446243286
804.0	92.7314987183
802.0	92.5748596191
800.0	91.9083328247
798.0	90.6450271606
796.0	88.7699813843
794.0	86.2961273193
792.0	83.2623977661
790.0	79.805519104
788.0	76.153968811
786.0	72.4681625366
784.0	68.7001495361
782.0	64.5370941162
780.0	59.562587738
778.0	53.5059928894
776.0	46.5061912537
774.0	39.0307426453
772.0	31.6201438904
770.0	24.6851196289
768.0	18.8488483429
766.0	14.4042015076
764.0	11.2665653229
762.0	8.79383087158
760.0	7.2172164917
758.0	6.23331069946
756.0	6.23006820679
754.0	6.73880577087
752.0	7.77163505554
750.0	8.76026153564
748.0	10.3031873703
746.0	13.6715650558
744.0	19.9636230469
742.0	28.3482322693
740.0	37.3097915649
738.0	45.9469566345
736.0	54.5040855408
734.0	63.4519119263
732.0	71.8655319214
730.0	78.2276382446
728.0	81.9765319824
726.0	83.3969345093
724.0	83.0512084961
722.0	81.689666748
720.0	79.8081359863
718.0	77.7364273071
716.0	74.7860870361
714.0	68.9250259399
712.0	58.2900047302
710.0	42.8787002563
708.0	25.6865978241
706.0	11.6431951523
704.0	4.93094921112
702.0	3.82461547852
700.0	3.54018211365
698.0	3.30727100372
696.0	3.84030342102
694.0	8.45150947571
692.0	20.5995330811
690.0	35.913444519
688.0	49.7531661987
686.0	59.2709770203
684.0	64.7452392578
682.0	68.452003479
680.0	71.8637924194
678.0	75.0935287476
676.0	77.7435531616
674.0	79.5692901611
672.0	80.6496124268
670.0	81.0918807983
668.0	81.9056015015
666.0	82.6665649414
664.0	83.2193374634
662.0	84.0138168335
660.0	84.9059829712
658.0	85.8959884644
656.0	87.0246429443
654.0	88.2777481079
652.0	89.6378479004
650.0	91.0221786499
648.0	92.4499282837
646.0	93.7560806274
644.0	94.7811126709
642.0	95.3324584961
640.0	95.1854248047
638.0	94.2472457886
636.0	92.6337738037
634.0	90.7341690063
632.0	88.8678588867
630.0	87.1631851196
628.0	85.6521148682
626.0	84.4147949219
624.0	83.1986923218
622.0	81.8251876831
620.0	81.2706680298
618.0	82.0696105957
616.0	83.0412368774
614.0	83.7125549316
612.0	84.3683700562
610.0	85.0070495605
608.0	85.6083831787
606.0	86.1398010254
604.0	86.545539856
602.0	86.7734222412
600.0	86.8227996826
598.0	86.6931915283
596.0	86.395072937
594.0	85.9371643066
592.0	85.3185882568
590.0	84.5394821167
588.0	83.5784225464
586.0	82.3493270874
584.0	80.7677536011
582.0	78.7260742188
580.0	76.1917114258
578.0	73.2924194336
576.0	70.1402435303
574.0	66.9671783447
572.0	63.9734268188
570.0	61.2044563293
568.0	58.7190856934
566.0	56.4765472412
564.0	54.3382644653
562.0	52.3056983948
560.0	50.3957748413
558.0	48.6137161255
556.0	46.8294143677
554.0	45.011806488
552.0	42.9542312622
550.0	40.6060447693
548.0	37.8449668884
546.0	34.7954025269
544.0	31.6414356232
542.0	29.0481090546
540.0	27.7071723938
538.0	28.712677002
536.0	32.6426734924
534.0	39.1455154419
532.0	46.9721069336
530.0	54.8740386963
528.0	62.1004333496
526.0	68.5547332764
524.0	73.9535827637
522.0	78.0389785767
520.0	81.1941146851
518.0	83.5797805786
516.0	85.3775939941
514.0	86.698677063
512.0	87.7139129639
510.0	88.5175476074
508.0	89.089225769
506.0	89.4305953979
504.0	89.5829162598
502.0	89.608505249
500.0	89.6339874268
498.0	89.6626205444
496.0	89.7459716797
494.0	89.9193725586
492.0	90.2474365234
490.0	90.7559127808
488.0	91.3899688721
486.0	92.1117782593
484.0	92.9812698364
482.0	93.9384002686
480.0	94.9285736084
478.0	95.9079284668
476.0	96.8112030029
474.0	97.5768585205
472.0	98.2426147461
470.0	98.8156280518
468.0	99.1771011353
466.0	99.3478317261
464.0	99.3326873779
462.0	99.0674743652
460.0	98.600151062
458.0	97.9088745117
456.0	97.1741638184
454.0	96.4450149536
452.0	95.6311187744
450.0	94.8834915161
