4000.0	95.13749694824219
3998.0	95.31822204589844
3996.0	95.56214904785156
3994.0	95.8303451538086
3992.0	96.06840515136719
3990.0	96.24375915527344
3988.0	96.35107421875
3986.0	96.39277648925781
3984.0	96.37467956542969
3982.0	96.3063735961914
3980.0	96.20063018798828
3978.0	96.07617950439453
3976.0	95.95067596435547
3974.0	95.84598541259766
3972.0	95.77200317382812
3970.0	95.718505859375
3968.0	95.67415618896484
3966.0	95.63555908203125
3964.0	95.60101318359375
3962.0	95.57728576660156
3960.0	95.58644104003906
3958.0	95.62303924560547
3956.0	95.67515563964844
3954.0	95.73786163330078
3952.0	95.80235290527344
3950.0	95.86041259765625
3948.0	95.94185638427734
3946.0	96.03910827636719
3944.0	96.10118865966797
3942.0	96.17316436767578
3940.0	96.27227783203125
3938.0	96.3542251586914
3936.0	96.42703247070312
3934.0	96.46570587158203
3932.0	96.48818969726562
3930.0	96.5351791381836
3928.0	96.5737075805664
3926.0	96.54753112792969
3924.0	96.48831176757812
3922.0	96.44432067871094
3920.0	96.36969757080078
3918.0	96.26359558105469
3916.0	96.17888641357422
3914.0	96.1406478881836
3912.0	96.08695220947266
3910.0	96.0020523071289
3908.0	95.89564514160156
3906.0	95.74739837646484
3904.0	95.59264373779297
3902.0	95.52497863769531
3900.0	95.54119110107422
3898.0	95.65260314941406
3896.0	95.79186248779297
3894.0	95.85514068603516
3892.0	95.89569854736328
3890.0	96.05066680908203
3888.0	96.17657470703125
3886.0	96.24932098388672
3884.0	96.42340850830078
3882.0	96.51124572753906
3880.0	96.609619140625
3878.0	96.79450988769531
3876.0	96.86217498779297
3874.0	96.859619140625
3872.0	96.85785675048828
3870.0	96.80998229980469
3868.0	96.83470916748047
3866.0	96.83177185058594
3864.0	96.73300170898438
3862.0	96.67317962646484
3860.0	96.64435577392578
3858.0	96.55992889404297
3856.0	96.41363525390625
3854.0	96.12286376953125
3852.0	95.93064880371094
3850.0	95.99552154541016
3848.0	96.02696990966797
3846.0	95.97318267822266
3844.0	95.85836029052734
3842.0	95.75360107421875
3840.0	95.66216278076172
3838.0	95.64550018310547
3836.0	95.73190307617188
3834.0	95.8304443359375
3832.0	95.9146499633789
3830.0	96.02973175048828
3828.0	96.10421752929688
3826.0	96.1782455444336
3824.0	96.23031616210938
3822.0	96.19169616699219
3820.0	96.27816772460938
3818.0	96.39663696289062
3816.0	96.45089721679688
3814.0	96.5850830078125
3812.0	96.66754913330078
3810.0	96.66688537597656
3808.0	96.57266235351562
3806.0	96.4549331665039
3804.0	96.3939208984375
3802.0	96.23265075683594
3800.0	96.1122055053711
3798.0	96.10073852539062
3796.0	96.04756927490234
3794.0	96.03834533691406
3792.0	96.042724609375
3790.0	96.0174560546875
3788.0	95.98509979248047
3786.0	95.94886016845703
3784.0	95.94082641601562
3782.0	95.96021270751953
3780.0	95.96061706542969
3778.0	96.03133392333984
3776.0	96.1415023803711
3774.0	96.22433471679688
3772.0	96.25737762451172
3770.0	96.30288696289062
3768.0	96.42803955078125
3766.0	96.5391845703125
3764.0	96.68805694580078
3762.0	96.7976303100586
3760.0	96.8473892211914
3758.0	96.95269775390625
3756.0	97.07060241699219
3754.0	97.10054016113281
3752.0	97.01199340820312
3750.0	96.96240234375
3748.0	97.00245666503906
3746.0	96.96305084228516
3744.0	96.76568603515625
3742.0	96.7437515258789
3740.0	96.72737121582031
3738.0	96.5759506225586
3736.0	96.282958984375
3734.0	96.08213806152344
3732.0	96.04277801513672
3730.0	96.02782440185547
3728.0	95.94540405273438
3726.0	95.7833251953125
3724.0	95.67436981201172
3722.0	95.64874267578125
3720.0	95.73006439208984
3718.0	95.89073944091797
3716.0	96.06185150146484
3714.0	96.13973999023438
3712.0	96.18608856201172
3710.0	96.3258056640625
3708.0	96.50084686279297
3706.0	96.59674072265625
3704.0	96.58689880371094
3702.0	96.55937957763672
3700.0	96.63746643066406
3698.0	96.76094055175781
3696.0	96.87394714355469
3694.0	96.94735717773438
3692.0	96.90737915039062
3690.0	96.79253387451172
3688.0	96.69098663330078
3686.0	96.63081359863281
3684.0	96.51882934570312
3682.0	96.32804107666016
3680.0	96.08450317382812
3678.0	95.83871459960938
3676.0	95.5576400756836
3674.0	95.38834381103516
3672.0	95.40338134765625
3670.0	95.31099700927734
3668.0	95.31784057617188
3666.0	95.40457916259766
3664.0	95.42359924316406
3662.0	95.39151000976562
3660.0	95.33650970458984
3658.0	95.22984313964844
3656.0	95.11267852783203
3654.0	95.02677917480469
3652.0	94.83168029785156
3650.0	94.59040069580078
3648.0	94.57600402832031
3646.0	94.84312438964844
3644.0	95.21393585205078
3642.0	95.64848327636719
3640.0	96.12679290771484
3638.0	96.55274963378906
3636.0	96.8568344116211
3634.0	97.01702880859375
3632.0	97.05855560302734
3630.0	96.91572570800781
3628.0	96.65877532958984
3626.0	96.54424285888672
3624.0	96.36692810058594
3622.0	96.09453582763672
3620.0	95.80847930908203
3618.0	95.69325256347656
3616.0	95.81763458251953
3614.0	95.97540283203125
3612.0	96.11339569091797
3610.0	96.21121978759766
3608.0	96.2534408569336
3606.0	96.3490219116211
3604.0	96.45333099365234
3602.0	96.49420166015625
3600.0	96.53947448730469
3598.0	96.61193084716797
3596.0	96.66898345947266
3594.0	96.77770233154297
3592.0	96.93853759765625
3590.0	97.03330993652344
3588.0	97.10411834716797
3586.0	97.32005310058594
3584.0	97.55880737304688
3582.0	97.72050476074219
3580.0	97.84407806396484
3578.0	97.94587707519531
3576.0	98.01979064941406
3574.0	98.07057189941406
3572.0	98.08950805664062
3570.0	98.03536224365234
3568.0	97.86698913574219
3566.0	97.7110595703125
3564.0	97.66702270507812
3562.0	97.60050964355469
3560.0	97.47977447509766
3558.0	97.35321807861328
3556.0	97.2359619140625
3554.0	97.1150894165039
3552.0	97.00980377197266
3550.0	96.95408630371094
3548.0	96.9016342163086
3546.0	96.86572265625
3544.0	96.90558624267578
3542.0	96.99060821533203
3540.0	97.07841491699219
3538.0	97.16615295410156
3536.0	97.28079223632812
3534.0	97.42333984375
3532.0	97.55272674560547
3530.0	97.66864776611328
3528.0	97.78730773925781
3526.0	97.91438293457031
3524.0	98.02474975585938
3522.0	98.12187957763672
3520.0	98.19023895263672
3518.0	98.21865844726562
3516.0	98.21440887451172
3514.0	98.17509460449219
3512.0	98.09038543701172
3510.0	97.96479034423828
3508.0	97.83413696289062
3506.0	97.6999282836914
3504.0	97.530029296875
3502.0	97.36077880859375
3500.0	97.21781921386719
3498.0	97.07682037353516
3496.0	96.93126678466797
3494.0	96.8056411743164
3492.0	96.71082305908203
3490.0	96.63624572753906
3488.0	96.59030151367188
3486.0	96.58391571044922
3484.0	96.59712219238281
3482.0	96.63956451416016
3480.0	96.73275756835938
3478.0	96.84388732910156
3476.0	96.95008087158203
3474.0	97.07412719726562
3472.0	97.2127456665039
3470.0	97.35823059082031
3468.0	97.49357604980469
3466.0	97.605224609375
3464.0	97.69058227539062
3462.0	97.76370239257812
3460.0	97.8202133178711
3458.0	97.83509063720703
3456.0	97.80792999267578
3454.0	97.74844360351562
3452.0	97.64823913574219
3450.0	97.51031494140625
3448.0	97.33161926269531
3446.0	97.13723754882812
3444.0	96.96114349365234
3442.0	96.79353332519531
3440.0	96.65345764160156
3438.0	96.55561828613281
3436.0	96.49798583984375
3434.0	96.47274017333984
3432.0	96.46961975097656
3430.0	96.49789428710938
3428.0	96.55725860595703
3426.0	96.6380386352539
3424.0	96.73773956298828
3422.0	96.85480499267578
3420.0	96.9940185546875
3418.0	97.15461730957031
3416.0	97.317626953125
3414.0	97.48272705078125
3412.0	97.6448745727539
3410.0	97.79429626464844
3408.0	97.92735290527344
3406.0	98.0418701171875
3404.0	98.1312026977539
3402.0	98.19729614257812
3400.0	98.23538970947266
3398.0	98.234130859375
3396.0	98.18999481201172
3394.0	98.11181640625
3392.0	98.00787353515625
3390.0	97.88506317138672
3388.0	97.73438262939453
3386.0	97.56660461425781
3384.0	97.39897155761719
3382.0	97.24655151367188
3380.0	97.11477661132812
3378.0	97.00374603271484
3376.0	96.91908264160156
3374.0	96.86457824707031
3372.0	96.84117126464844
3370.0	96.85147094726562
3368.0	96.88742065429688
3366.0	96.94474029541016
3364.0	97.02324676513672
3362.0	97.13372802734375
3360.0	97.26896667480469
3358.0	97.41554260253906
3356.0	97.56190490722656
3354.0	97.72183990478516
3352.0	97.88248443603516
3350.0	98.03042602539062
3348.0	98.14141082763672
3346.0	98.22988891601562
3344.0	98.29585266113281
3342.0	98.33035278320312
3340.0	98.32713317871094
3338.0	98.2889404296875
3336.0	98.2013931274414
3334.0	98.0824203491211
3332.0	97.94371032714844
3330.0	97.78582763671875
3328.0	97.61865234375
3326.0	97.45454406738281
3324.0	97.29118347167969
3322.0	97.13285064697266
3320.0	96.98941802978516
3318.0	96.87232971191406
3316.0	96.78509521484375
3314.0	96.73018646240234
3312.0	96.710205078125
3310.0	96.72476959228516
3308.0	96.77581787109375
3306.0	96.86283874511719
3304.0	96.96875
3302.0	97.09403228759766
3300.0	97.23250579833984
3298.0	97.38540649414062
3296.0	97.54876708984375
3294.0	97.70870208740234
3292.0	97.8557357788086
3290.0	97.98431396484375
3288.0	98.08087158203125
3286.0	98.14488983154297
3284.0	98.1721420288086
3282.0	98.16127014160156
3280.0	98.11267852783203
3278.0	98.02239227294922
3276.0	97.89507293701172
3274.0	97.74188995361328
3272.0	97.5696792602539
3270.0	97.38650512695312
3268.0	97.18885803222656
3266.0	96.98973083496094
3264.0	96.80464172363281
3262.0	96.64111328125
3260.0	96.50480651855469
3258.0	96.40452575683594
3256.0	96.33922576904297
3254.0	96.30902099609375
3252.0	96.31784057617188
3250.0	96.36898040771484
3248.0	96.45085144042969
3246.0	96.55802154541016
3244.0	96.68681335449219
3242.0	96.8374252319336
3240.0	97.00100708007812
3238.0	97.16718292236328
3236.0	97.33457946777344
3234.0	97.4964370727539
3232.0	97.6216812133789
3230.0	97.70226287841797
3228.0	97.74935150146484
3226.0	97.75936889648438
3224.0	97.72787475585938
3222.0	97.64794921875
3220.0	97.52378845214844
3218.0	97.36099243164062
3216.0	97.15900421142578
3214.0	96.92887878417969
3212.0	96.67578125
3210.0	96.40593719482422
3208.0	96.1334457397461
3206.0	95.87614440917969
3204.0	95.6400375366211
3202.0	95.44722747802734
3200.0	95.31197357177734
3198.0	95.24638366699219
3196.0	95.25428009033203
3194.0	95.31199645996094
3192.0	95.39134216308594
3190.0	95.48795318603516
3188.0	95.59349822998047
3186.0	95.70655822753906
3184.0	95.8394546508789
3182.0	95.98893737792969
3180.0	96.13516235351562
3178.0	96.26040649414062
3176.0	96.34318542480469
3174.0	96.3499526977539
3172.0	96.24662780761719
3170.0	95.99590301513672
3168.0	95.57070922851562
3166.0	95.00100708007812
3164.0	94.42932891845703
3162.0	94.0694808959961
3160.0	94.03021240234375
3158.0	94.19574737548828
3156.0	94.3635482788086
3154.0	94.42115020751953
3152.0	94.36363983154297
3150.0	94.23272705078125
3148.0	94.07677459716797
3146.0	93.93572998046875
3144.0	93.82476806640625
3142.0	93.74647521972656
3140.0	93.69473266601562
3138.0	93.66898345947266
3136.0	93.65475463867188
3134.0	93.63984680175781
3132.0	93.6269302368164
3130.0	93.59715270996094
3128.0	93.52366638183594
3126.0	93.38040161132812
3124.0	93.1335220336914
3122.0	92.72969055175781
3120.0	92.09751892089844
3118.0	91.1377182006836
3116.0	89.72731018066406
3114.0	87.70976257324219
3112.0	84.92465209960938
3110.0	81.26659393310547
3108.0	76.93517303466797
3106.0	72.73108673095703
3104.0	69.86937713623047
3102.0	69.12791442871094
3100.0	70.05677032470703
3098.0	71.34713745117188
3096.0	71.77247619628906
3094.0	70.54269409179688
3092.0	67.13307189941406
3090.0	61.234832763671875
3088.0	53.10282897949219
3086.0	44.08660125732422
3084.0	36.707496643066406
3082.0	33.787200927734375
3080.0	36.16008758544922
3078.0	41.43011474609375
3076.0	46.24974822998047
3074.0	48.761322021484375
3072.0	48.71904754638672
3070.0	46.39396667480469
3068.0	41.97716522216797
3066.0	35.92958450317383
3064.0	29.422592163085938
3062.0	24.138689041137695
3060.0	21.79629898071289
3058.0	23.37396240234375
3056.0	28.325557708740234
3054.0	34.737491607666016
3052.0	40.81590270996094
3050.0	45.83263397216797
3048.0	49.587154388427734
3046.0	51.695106506347656
3044.0	51.72686767578125
3042.0	49.62194061279297
3040.0	45.68948745727539
3038.0	40.27619171142578
3036.0	33.549163818359375
3034.0	25.915813446044922
3032.0	18.337512969970703
3030.0	12.153911590576172
3028.0	8.427953720092773
3026.0	7.022500038146973
3024.0	7.70571231842041
3022.0	11.951231956481934
3020.0	20.028186798095703
3018.0	30.506778717041016
3016.0	41.165184020996094
3014.0	50.21562576293945
3012.0	56.755592346191406
3010.0	60.443782806396484
3008.0	61.27116775512695
3006.0	59.571956634521484
3004.0	56.33077621459961
3002.0	53.608848571777344
3000.0	54.008460998535156
2998.0	58.59336853027344
2996.0	65.44933319091797
2994.0	71.76757049560547
2992.0	76.26216125488281
2990.0	79.11219787597656
2988.0	80.84273529052734
2986.0	81.77373504638672
2984.0	82.0628433227539
2982.0	81.81619262695312
2980.0	81.14988708496094
2978.0	80.2855224609375
2976.0	79.51319122314453
2974.0	78.9286880493164
2972.0	78.30827331542969
2970.0	77.40185546875
2968.0	76.10816955566406
2966.0	74.44896697998047
2964.0	72.44930267333984
2962.0	70.11061096191406
2960.0	67.40765380859375
2958.0	64.30596923828125
2956.0	60.75868606567383
2954.0	56.724143981933594
2952.0	52.202247619628906
2950.0	47.248985290527344
2948.0	41.94822311401367
2946.0	36.482357025146484
2944.0	31.08279800415039
2942.0	25.9798526763916
2940.0	21.27621078491211
2938.0	17.08083152770996
2936.0	13.4901762008667
2934.0	10.675740242004395
2932.0	8.536648750305176
2930.0	7.072329521179199
2928.0	6.222128868103027
2926.0	5.925655364990234
2924.0	5.692958831787109
2922.0	5.621194839477539
2920.0	5.568575859069824
2918.0	5.780625343322754
2916.0	6.348943710327148
2914.0	7.415556907653809
2912.0	8.953571319580078
2910.0	10.936975479125977
2908.0	13.293671607971191
2906.0	16.059017181396484
2904.0	19.27716827392578
2902.0	22.95486831665039
2900.0	27.006317138671875
2898.0	31.172489166259766
2896.0	35.12950134277344
2894.0	38.641571044921875
2892.0	41.661476135253906
2890.0	44.282676696777344
2888.0	46.62981033325195
2886.0	48.819305419921875
2884.0	50.92144012451172
2882.0	53.00571823120117
2880.0	55.092430114746094
2878.0	57.15208053588867
2876.0	59.06989669799805
2874.0	60.69233322143555
2872.0	61.83698272705078
2870.0	62.32624053955078
2868.0	61.98754119873047
2866.0	60.685707092285156
2864.0	58.35051727294922
2862.0	55.052589416503906
2860.0	51.02577209472656
2858.0	46.6780891418457
2856.0	42.47222137451172
2854.0	38.86232376098633
2852.0	36.258270263671875
2850.0	35.01171875
2848.0	35.48765182495117
2846.0	38.07220458984375
2844.0	42.99116134643555
2842.0	50.05214309692383
2840.0	58.42049026489258
2838.0	66.81399536132812
2836.0	74.05183410644531
2834.0	79.52359008789062
2832.0	83.24527740478516
2830.0	85.58521270751953
2828.0	86.98098754882812
2826.0	87.78572082519531
2824.0	88.24081420898438
2822.0	88.49758911132812
2820.0	88.64159393310547
2818.0	88.73117065429688
2816.0	88.79856872558594
2814.0	88.87293243408203
2812.0	88.98482513427734
2810.0	89.17147827148438
2808.0	89.46158599853516
2806.0	89.85795593261719
2804.0	90.33548736572266
2802.0	90.86043548583984
2800.0	91.39461517333984
2798.0	91.90830993652344
2796.0	92.37303924560547
2794.0	92.7735595703125
2792.0	93.09632873535156
2790.0	93.32470703125
2788.0	93.44325256347656
2786.0	93.44851684570312
2784.0	93.3542251586914
2782.0	93.19641876220703
2780.0	93.02690124511719
2778.0	92.89777374267578
2776.0	92.84219360351562
2774.0	92.84484100341797
2772.0	92.86601257324219
2770.0	92.88082122802734
2768.0	92.8834457397461
2766.0	92.88361358642578
2764.0	92.89555358886719
2762.0	92.93999481201172
2760.0	93.02906799316406
2758.0	93.1662826538086
2756.0	93.3463363647461
2754.0	93.5660629272461
2752.0	93.82374572753906
2750.0	94.11292266845703
2748.0	94.40445709228516
2746.0	94.673583984375
2744.0	94.91558074951172
2742.0	95.12028503417969
2740.0	95.26765441894531
2738.0	95.35191345214844
2736.0	95.36478424072266
2734.0	95.30474853515625
2732.0	95.1954574584961
2730.0	95.05038452148438
2728.0	94.87347412109375
2726.0	94.66548156738281
2724.0	94.41890716552734
2722.0	94.1507568359375
2720.0	93.88048553466797
2718.0	93.62123107910156
2716.0	93.38512420654297
2714.0	93.17879486083984
2712.0	93.00875854492188
2710.0	92.8812026977539
2708.0	92.79119873046875
2706.0	92.74442291259766
2704.0	92.74363708496094
2702.0	92.78602600097656
2700.0	92.87037658691406
2698.0	92.99445343017578
2696.0	93.15342712402344
2694.0	93.3471908569336
2692.0	93.57068634033203
2690.0	93.81272888183594
2688.0	94.06602478027344
2686.0	94.32103729248047
2684.0	94.56414794921875
2682.0	94.78369140625
2680.0	94.96186065673828
2678.0	95.0764389038086
2676.0	95.12047576904297
2674.0	95.09856414794922
2672.0	95.01883697509766
2670.0	94.90411376953125
2668.0	94.7701416015625
2666.0	94.60430145263672
2664.0	94.39137268066406
2662.0	94.13973999023438
2660.0	93.868896484375
2658.0	93.59808349609375
2656.0	93.34185028076172
2654.0	93.11614227294922
2652.0	92.93208312988281
2650.0	92.7967300415039
2648.0	92.71778869628906
2646.0	92.7003402709961
2644.0	92.74237060546875
2642.0	92.81592559814453
2640.0	92.88079833984375
2638.0	92.89601135253906
2636.0	92.84954071044922
2634.0	92.78700256347656
2632.0	92.83695220947266
2630.0	93.13216400146484
2628.0	93.66295623779297
2626.0	94.26026153564453
2624.0	94.7774429321289
2622.0	95.17266845703125
2620.0	95.4478530883789
2618.0	95.59752655029297
2616.0	95.61512756347656
2614.0	95.49365234375
2612.0	95.22843170166016
2610.0	94.82447814941406
2608.0	94.31478881835938
2606.0	93.77653503417969
2604.0	93.31979370117188
2602.0	93.04020690917969
2600.0	92.9555892944336
2598.0	93.0106201171875
2596.0	93.12207794189453
2594.0	93.22395324707031
2592.0	93.2791976928711
2590.0	93.27938842773438
2588.0	93.22183227539062
2586.0	93.10877227783203
2584.0	92.96946716308594
2582.0	92.90406799316406
2580.0	93.06304168701172
2578.0	93.48857116699219
2576.0	94.03865051269531
2574.0	94.5527572631836
2572.0	94.973876953125
2570.0	95.31035614013672
2568.0	95.57948303222656
2566.0	95.79086303710938
2564.0	95.95201110839844
2562.0	96.06842803955078
2560.0	96.13399505615234
2558.0	96.13988494873047
2556.0	96.072509765625
2554.0	95.92325592041016
2552.0	95.69220733642578
2550.0	95.39864349365234
2548.0	95.07899475097656
2546.0	94.77822875976562
2544.0	94.52543640136719
2542.0	94.32546997070312
2540.0	94.1517333984375
2538.0	93.985107421875
2536.0	93.82586669921875
2534.0	93.69294738769531
2532.0	93.59955596923828
2530.0	93.54998779296875
2528.0	93.54586791992188
2526.0	93.58971405029297
2524.0	93.6817855834961
2522.0	93.8252182006836
2520.0	94.01850891113281
2518.0	94.24879455566406
2516.0	94.49994659423828
2514.0	94.75667572021484
2512.0	95.00880432128906
2510.0	95.25585174560547
2508.0	95.50139617919922
2506.0	95.74496459960938
2504.0	95.96879577636719
2502.0	96.14739227294922
2500.0	96.25568389892578
2498.0	96.27950286865234
2496.0	96.21794128417969
2494.0	96.09093475341797
2492.0	95.92051696777344
2490.0	95.72117614746094
2488.0	95.49417114257812
2486.0	95.24662780761719
2484.0	94.99649810791016
2482.0	94.76919555664062
2480.0	94.58196258544922
2478.0	94.44268035888672
2476.0	94.35608673095703
2474.0	94.32563781738281
2472.0	94.35234069824219
2470.0	94.43791198730469
2468.0	94.58069610595703
2466.0	94.77422332763672
2464.0	95.012451171875
2462.0	95.28570556640625
2460.0	95.58181762695312
2458.0	95.88919067382812
2456.0	96.19322204589844
2454.0	96.49069213867188
2452.0	96.7876205444336
2450.0	97.08271026611328
2448.0	97.34950256347656
2446.0	97.56245422363281
2444.0	97.70777130126953
2442.0	97.783447265625
2440.0	97.78740692138672
2438.0	97.72107696533203
2436.0	97.58951568603516
2434.0	97.40569305419922
2432.0	97.17814636230469
2430.0	96.91736602783203
2428.0	96.63269805908203
2426.0	96.33464813232422
2424.0	96.03407287597656
2422.0	95.7437515258789
2420.0	95.48013305664062
2418.0	95.25828552246094
2416.0	95.0856704711914
2414.0	94.96920013427734
2412.0	94.91613006591797
2410.0	94.92664337158203
2408.0	94.99761962890625
2406.0	95.12910461425781
2404.0	95.31822204589844
2402.0	95.55809783935547
2400.0	95.83692932128906
2398.0	96.14331817626953
2396.0	96.4609375
2394.0	96.77374267578125
2392.0	97.06561279296875
2390.0	97.31743621826172
2388.0	97.50704956054688
2386.0	97.61628723144531
2384.0	97.63031005859375
2382.0	97.55289459228516
2380.0	97.39246368408203
2378.0	97.14588928222656
2376.0	96.7914810180664
2374.0	96.3165054321289
2372.0	95.70791625976562
2370.0	94.96087646484375
2368.0	94.09236907958984
2366.0	93.16041564941406
2364.0	92.28019714355469
2362.0	91.61412811279297
2360.0	91.26200866699219
2358.0	91.30999755859375
2356.0	91.72079467773438
2354.0	92.21505737304688
2352.0	92.71678924560547
2350.0	93.08600616455078
2348.0	93.17279052734375
2346.0	92.99879455566406
2344.0	92.67816162109375
2342.0	92.38522338867188
2340.0	92.17071533203125
2338.0	92.09471130371094
2336.0	92.35568237304688
2334.0	93.02632904052734
2332.0	93.9778823852539
2330.0	94.96834564208984
2328.0	95.75505065917969
2326.0	96.29590606689453
2324.0	96.59171295166016
2322.0	96.66476440429688
2320.0	96.49569702148438
2318.0	96.12359619140625
2316.0	95.61419677734375
2314.0	95.05362701416016
2312.0	94.57971954345703
2310.0	94.35920715332031
2308.0	94.40235900878906
2306.0	94.56305694580078
2304.0	94.67494201660156
2302.0	94.66319274902344
2300.0	94.5566177368164
2298.0	94.42434692382812
2296.0	94.32046508789062
2294.0	94.28977966308594
2292.0	94.36502075195312
2290.0	94.56269836425781
2288.0	94.8618392944336
2286.0	95.23580169677734
2284.0	95.6430435180664
2282.0	96.0510025024414
2280.0	96.45421600341797
2278.0	96.84342956542969
2276.0	97.20130157470703
2274.0	97.51756286621094
2272.0	97.77481842041016
2270.0	97.96390533447266
2268.0	98.07481384277344
2266.0	98.10530853271484
2264.0	98.05586242675781
2262.0	97.92852783203125
2260.0	97.73087310791016
2258.0	97.47933959960938
2256.0	97.18952178955078
2254.0	96.8830337524414
2252.0	96.58174133300781
2250.0	96.29389953613281
2248.0	96.02324676513672
2246.0	95.77407836914062
2244.0	95.54638671875
2242.0	95.34918975830078
2240.0	95.194580078125
2238.0	95.09382629394531
2236.0	95.05178833007812
2234.0	95.07615661621094
2232.0	95.1729507446289
2230.0	95.34814453125
2228.0	95.59557342529297
2226.0	95.90971374511719
2224.0	96.27213287353516
2222.0	96.6666259765625
2220.0	97.06988525390625
2218.0	97.4598159790039
2216.0	97.81613159179688
2214.0	98.12860107421875
2212.0	98.39286804199219
2210.0	98.61416625976562
2208.0	98.79103088378906
2206.0	98.91390991210938
2204.0	98.95909118652344
2202.0	98.9054946899414
2200.0	98.74903869628906
2198.0	98.49832153320312
2196.0	98.16973114013672
2194.0	97.78242492675781
2192.0	97.35543823242188
2190.0	96.90852355957031
2188.0	96.46847534179688
2186.0	96.07405853271484
2184.0	95.75550842285156
2182.0	95.5352783203125
2180.0	95.41316223144531
2178.0	95.377685546875
2176.0	95.41058349609375
2174.0	95.51041412353516
2172.0	95.67513275146484
2170.0	95.91143035888672
2168.0	96.20804595947266
2166.0	96.55401611328125
2164.0	96.93548583984375
2162.0	97.33753204345703
2160.0	97.74243927001953
2158.0	98.1342544555664
2156.0	98.49877166748047
2154.0	98.8199462890625
2152.0	99.08680725097656
2150.0	99.28228759765625
2148.0	99.4007797241211
2146.0	99.43296813964844
2144.0	99.38197326660156
2142.0	99.24996185302734
2140.0	99.0427017211914
2138.0	98.76882934570312
2136.0	98.4416732788086
2134.0	98.07579803466797
2132.0	97.68653106689453
2130.0	97.29135131835938
2128.0	96.90778350830078
2126.0	96.55537414550781
2124.0	96.25606536865234
2122.0	96.02041625976562
2120.0	95.86026763916016
2118.0	95.78304290771484
2116.0	95.79639434814453
2114.0	95.90351867675781
2112.0	96.1019515991211
2110.0	96.3866958618164
2108.0	96.73342895507812
2106.0	97.13158416748047
2104.0	97.55389404296875
2102.0	97.99823760986328
2100.0	98.43292236328125
2098.0	98.85206604003906
2096.0	99.2228012084961
2094.0	99.53913879394531
2092.0	99.77965545654297
2090.0	99.93560028076172
2088.0	100.0
2086.0	99.9672622680664
2084.0	99.83789825439453
2082.0	99.61914825439453
2080.0	99.31781005859375
2078.0	98.945068359375
2076.0	98.51786804199219
2074.0	98.06685638427734
2072.0	97.61066436767578
2070.0	97.17555236816406
2068.0	96.77388763427734
2066.0	96.42047882080078
2064.0	96.13785552978516
2062.0	95.94457244873047
2060.0	95.83589935302734
2058.0	95.81864166259766
2056.0	95.89481353759766
2054.0	96.0602035522461
2052.0	96.30555725097656
2050.0	96.62199401855469
2048.0	96.99370574951172
2046.0	97.40138244628906
2044.0	97.82257080078125
2042.0	98.2402572631836
2040.0	98.63970184326172
2038.0	98.99308776855469
2036.0	99.28002166748047
2034.0	99.49385833740234
2032.0	99.62918853759766
2030.0	99.69003295898438
2028.0	99.67191314697266
2026.0	99.56729125976562
2024.0	99.37107849121094
2022.0	99.08688354492188
2020.0	98.72122192382812
2018.0	98.27825927734375
2016.0	97.78511810302734
2014.0	97.28155517578125
2012.0	96.77285766601562
2010.0	96.29022979736328
2008.0	95.87052154541016
2006.0	95.53773498535156
2004.0	95.29679107666016
2002.0	95.1386947631836
2000.0	95.05155181884766
1998.0	95.02156066894531
1996.0	95.02518463134766
1994.0	95.02487182617188
1992.0	95.00379943847656
1990.0	94.9910888671875
1988.0	95.00920867919922
1986.0	95.14217376708984
1984.0	95.4476089477539
1982.0	95.8565673828125
1980.0	96.24588775634766
1978.0	96.51541900634766
1976.0	96.56331634521484
1974.0	96.26414489746094
1972.0	95.52468872070312
1970.0	94.3550796508789
1968.0	92.83602142333984
1966.0	91.12525177001953
1964.0	89.46028137207031
1962.0	87.94047546386719
1960.0	86.62674713134766
1958.0	85.51707458496094
1956.0	84.5204086303711
1954.0	83.48435974121094
1952.0	82.29234313964844
1950.0	80.87437438964844
1948.0	79.33838653564453
1946.0	77.9185562133789
1944.0	76.987548828125
1942.0	76.87034606933594
1940.0	77.77294921875
1938.0	79.5165786743164
1936.0	81.8360595703125
1934.0	84.3158950805664
1932.0	86.64364624023438
1930.0	88.623046875
1928.0	90.25733184814453
1926.0	91.60762023925781
1924.0	92.77157592773438
1922.0	93.88420867919922
1920.0	94.8648910522461
1918.0	95.73321533203125
1916.0	96.49736785888672
1914.0	97.02396392822266
1912.0	97.30632019042969
1910.0	97.36001586914062
1908.0	97.20482635498047
1906.0	96.85995483398438
1904.0	96.28849029541016
1902.0	95.50096893310547
1900.0	94.49415588378906
1898.0	93.29573822021484
1896.0	91.91484069824219
1894.0	90.41764831542969
1892.0	88.94612884521484
1890.0	87.48853302001953
1888.0	86.16259002685547
1886.0	85.1480941772461
1884.0	84.32801055908203
1882.0	83.70352172851562
1880.0	83.21993255615234
1878.0	82.80813598632812
1876.0	82.41806030273438
1874.0	82.06846618652344
1872.0	81.83784484863281
1870.0	81.85577392578125
1868.0	82.40930938720703
1866.0	83.589599609375
1864.0	85.25147247314453
1862.0	87.29498291015625
1860.0	89.50011444091797
1858.0	91.62580871582031
1856.0	93.47345733642578
1854.0	94.9471435546875
1852.0	96.0286636352539
1850.0	96.74356079101562
1848.0	97.13501739501953
1846.0	97.2481689453125
1844.0	97.11730194091797
1842.0	96.9075927734375
1840.0	96.57075500488281
1838.0	96.01707458496094
1836.0	95.32108306884766
1834.0	94.536376953125
1832.0	93.6605224609375
1830.0	92.60289764404297
1828.0	91.58692169189453
1826.0	90.67716979980469
1824.0	89.69039916992188
1822.0	88.84310913085938
1820.0	88.04371643066406
1818.0	87.24861145019531
1816.0	86.49737548828125
1814.0	85.76960754394531
1812.0	85.00704956054688
1810.0	84.20276641845703
1808.0	83.47830963134766
1806.0	82.86738586425781
1804.0	82.51626586914062
1802.0	82.57518005371094
1800.0	83.33797454833984
1798.0	84.78813171386719
1796.0	86.71228790283203
1794.0	88.80240631103516
1792.0	91.15629577636719
1790.0	93.24202728271484
1788.0	94.60134887695312
1786.0	95.3938980102539
1784.0	95.69580841064453
1782.0	95.55802154541016
1780.0	95.04644775390625
1778.0	94.40924835205078
1776.0	93.8142318725586
1774.0	93.34442901611328
1772.0	93.03917694091797
1770.0	92.92483520507812
1768.0	92.74952697753906
1766.0	92.41146850585938
1764.0	91.97313690185547
1762.0	91.32749938964844
1760.0	90.66908264160156
1758.0	90.03009796142578
1756.0	89.27896118164062
1754.0	88.63053131103516
1752.0	87.9832763671875
1750.0	87.44070434570312
1748.0	87.26806640625
1746.0	87.45462799072266
1744.0	87.91859436035156
1742.0	88.67034912109375
1740.0	89.69364166259766
1738.0	90.95437622070312
1736.0	91.90766906738281
1734.0	93.04315948486328
1732.0	94.19984436035156
1730.0	94.91624450683594
1728.0	95.43562316894531
1726.0	95.71600341796875
1724.0	95.77348327636719
1722.0	95.7021484375
1720.0	95.48411560058594
1718.0	95.04971313476562
1716.0	94.65150451660156
1714.0	94.43101501464844
1712.0	94.1924819946289
1710.0	93.8813705444336
1708.0	93.51923370361328
1706.0	93.13392639160156
1704.0	92.91718292236328
1702.0	92.76451873779297
1700.0	92.75393676757812
1698.0	93.02130126953125
1696.0	93.40274047851562
1694.0	93.94349670410156
1692.0	94.27750396728516
1690.0	94.4020004272461
1688.0	94.43988800048828
1686.0	94.30785369873047
1684.0	94.04042053222656
1682.0	94.07134246826172
1680.0	94.03474426269531
1678.0	93.85469055175781
1676.0	93.51348876953125
1674.0	93.13683319091797
1672.0	92.82810974121094
1670.0	92.40264892578125
1668.0	92.08147430419922
1666.0	91.97421264648438
1664.0	91.85838317871094
1662.0	91.81580352783203
1660.0	91.95814514160156
1658.0	92.0857925415039
1656.0	92.10665130615234
1654.0	91.89167022705078
1652.0	91.88063049316406
1650.0	92.1396713256836
1648.0	92.17505645751953
1646.0	92.42131805419922
1644.0	92.88349151611328
1642.0	93.2861328125
1640.0	93.63617706298828
1638.0	93.89154815673828
1636.0	94.16127014160156
1634.0	94.70648956298828
1632.0	95.09327697753906
1630.0	95.23255920410156
1628.0	95.17228698730469
1626.0	94.98064422607422
1624.0	94.56539154052734
1622.0	93.97811889648438
1620.0	93.27719116210938
1618.0	92.04924011230469
1616.0	89.69745635986328
1614.0	86.84327697753906
1612.0	82.929443359375
1610.0	76.26199340820312
1608.0	65.81356811523438
1606.0	51.95572280883789
1604.0	37.96973419189453
1602.0	28.548812866210938
1600.0	30.225826263427734
1598.0	40.91634750366211
1596.0	53.671119689941406
1594.0	63.7150993347168
1592.0	70.46854400634766
1590.0	74.46759033203125
1588.0	74.99663543701172
1586.0	70.82610321044922
1584.0	64.84803771972656
1582.0	65.35195922851562
1580.0	73.28565216064453
1578.0	80.390380859375
1576.0	85.08985137939453
1574.0	88.06126403808594
1572.0	89.90316772460938
1570.0	91.57269287109375
1568.0	93.10459899902344
1566.0	94.08881378173828
1564.0	94.86353302001953
1562.0	95.26245880126953
1560.0	95.04778289794922
1558.0	94.63255310058594
1556.0	94.37982940673828
1554.0	93.53341674804688
1552.0	92.3340072631836
1550.0	90.87178802490234
1548.0	89.32554626464844
1546.0	87.97547912597656
1544.0	86.69786071777344
1542.0	85.82546997070312
1540.0	85.495849609375
1538.0	85.96873474121094
1536.0	86.60554504394531
1534.0	87.23299407958984
1532.0	88.11270904541016
1530.0	88.8649673461914
1528.0	89.42005920410156
1526.0	89.93441772460938
1524.0	90.35485076904297
1522.0	90.64793395996094
1520.0	91.07327270507812
1518.0	91.32008361816406
1516.0	91.37236785888672
1514.0	91.22676849365234
1512.0	90.63265228271484
1510.0	89.53314208984375
1508.0	87.61720275878906
1506.0	83.5805892944336
1504.0	78.82864379882812
1502.0	72.82566833496094
1500.0	62.5838508605957
1498.0	46.31657409667969
1496.0	25.835132598876953
1494.0	10.00216007232666
1492.0	8.798766136169434
1490.0	21.65665626525879
1488.0	36.941001892089844
1486.0	51.56932067871094
1484.0	63.385677337646484
1482.0	72.31166076660156
1480.0	77.76553344726562
1478.0	80.38146209716797
1476.0	81.29396057128906
1474.0	81.46622467041016
1472.0	81.1003189086914
1470.0	80.7860107421875
1468.0	80.15031433105469
1466.0	79.04710388183594
1464.0	76.57814025878906
1462.0	72.67308044433594
1460.0	65.91107940673828
1458.0	53.18400955200195
1456.0	29.950857162475586
1454.0	12.53204345703125
1452.0	5.691337585449219
1450.0	10.448861122131348
1448.0	15.313100814819336
1446.0	22.291946411132812
1444.0	29.534603118896484
1442.0	37.821983337402344
1440.0	45.46570587158203
1438.0	53.058074951171875
1436.0	62.47987747192383
1434.0	70.56465148925781
1432.0	76.7648696899414
1430.0	82.27178955078125
1428.0	86.32416534423828
1426.0	88.86237335205078
1424.0	90.54734802246094
1422.0	91.50345611572266
1420.0	91.89555358886719
1418.0	91.91903686523438
1416.0	91.82650756835938
1414.0	91.452880859375
1412.0	90.92061614990234
1410.0	90.23997497558594
1408.0	89.59937286376953
1406.0	88.90595245361328
1404.0	88.28606414794922
1402.0	87.75584411621094
1400.0	87.21480560302734
1398.0	86.55836486816406
1396.0	85.81318664550781
1394.0	84.65359497070312
1392.0	83.12763977050781
1390.0	81.14717102050781
1388.0	78.53264617919922
1386.0	75.65949249267578
1384.0	73.29988098144531
1382.0	71.35465240478516
1380.0	69.56810760498047
1378.0	67.68536376953125
1376.0	65.80615234375
1374.0	64.44325256347656
1372.0	64.0867691040039
1370.0	64.49311065673828
1368.0	65.17760467529297
1366.0	65.86134338378906
1364.0	66.50199890136719
1362.0	67.28379821777344
1360.0	68.28081512451172
1358.0	69.30775451660156
1356.0	70.09027099609375
1354.0	70.39591979980469
1352.0	70.34967041015625
1350.0	70.26097869873047
1348.0	70.468994140625
1346.0	71.11528015136719
1344.0	72.14173889160156
1342.0	73.25048828125
1340.0	74.14164733886719
1338.0	74.49192810058594
1336.0	74.04486846923828
1334.0	72.84037780761719
1332.0	71.27425384521484
1330.0	70.05760955810547
1328.0	69.89595794677734
1326.0	70.84286499023438
1324.0	72.27275085449219
1322.0	73.52738189697266
1320.0	74.2776870727539
1318.0	74.39234161376953
1316.0	73.97592163085938
1314.0	73.40996551513672
1312.0	73.22673797607422
1310.0	73.74341583251953
1308.0	74.82776641845703
1306.0	76.10382843017578
1304.0	77.3365478515625
1302.0	78.49295043945312
1300.0	79.48904418945312
1298.0	80.10237121582031
1296.0	80.28685760498047
1294.0	80.28092193603516
1292.0	80.3648681640625
1290.0	80.62014770507812
1288.0	80.9286117553711
1286.0	81.10720825195312
1284.0	81.11360168457031
1282.0	81.12123107910156
1280.0	81.40485382080078
1278.0	82.13591766357422
1276.0	83.26387023925781
1274.0	84.56471252441406
1272.0	85.8470458984375
1270.0	87.03324890136719
1268.0	88.11407470703125
1266.0	89.0929946899414
1264.0	89.97769165039062
1262.0	90.73748779296875
1260.0	91.33534240722656
1258.0	91.70594024658203
1256.0	91.81866455078125
1254.0	91.69566345214844
1252.0	91.4112548828125
1250.0	91.04022979736328
1248.0	90.65289306640625
1246.0	90.289306640625
1244.0	89.96708679199219
1242.0	89.68122100830078
1240.0	89.41569519042969
1238.0	89.13910675048828
1236.0	88.79998016357422
1234.0	88.36901092529297
1232.0	87.86604309082031
1230.0	87.35470581054688
1228.0	86.9243392944336
1226.0	86.66310119628906
1224.0	86.61038970947266
1222.0	86.73119354248047
1220.0	86.9254150390625
1218.0	87.09223175048828
1216.0	87.1723403930664
1214.0	87.13179016113281
1212.0	86.93690490722656
1210.0	86.56044006347656
1208.0	85.95977020263672
1206.0	85.07435607910156
1204.0	83.87692260742188
1202.0	82.47003173828125
1200.0	81.14971923828125
1198.0	80.25250244140625
1196.0	79.86064147949219
1194.0	79.73696899414062
1192.0	79.61292266845703
1190.0	79.29151153564453
1188.0	78.37159729003906
1186.0	76.24187469482422
1184.0	72.9866943359375
1182.0	70.44651794433594
1180.0	71.245361328125
1178.0	75.49650573730469
1176.0	80.25756072998047
1174.0	83.22586822509766
1172.0	84.47227478027344
1170.0	84.86483001708984
1168.0	84.891845703125
1166.0	84.68761444091797
1164.0	84.15486907958984
1162.0	82.91187286376953
1160.0	80.29198455810547
1158.0	76.06332397460938
1156.0	71.8301773071289
1154.0	70.84722900390625
1152.0	74.59077453613281
1150.0	80.55748748779297
1148.0	85.55011749267578
1146.0	88.85504913330078
1144.0	91.24376678466797
1142.0	93.1955337524414
1140.0	94.7630615234375
1138.0	95.89779663085938
1136.0	96.61602783203125
1134.0	96.97850036621094
1132.0	97.04470825195312
1130.0	96.84910583496094
1128.0	96.41992950439453
1126.0	95.7753677368164
1124.0	94.90301513671875
1122.0	93.76042175292969
1120.0	92.32283020019531
1118.0	90.67475891113281
1116.0	89.06395721435547
1114.0	87.84730529785156
1112.0	87.24620056152344
1110.0	87.2018814086914
1108.0	87.46125793457031
1106.0	87.73930358886719
1104.0	87.85979461669922
1102.0	87.79983520507812
1100.0	87.61775207519531
1098.0	87.3810043334961
1096.0	87.13946533203125
1094.0	86.90872192382812
1092.0	86.64114379882812
1090.0	86.21647644042969
1088.0	85.47530364990234
1086.0	84.24324798583984
1084.0	82.4392318725586
1082.0	80.2133560180664
1080.0	77.90203094482422
1078.0	75.57525634765625
1076.0	72.71728515625
1074.0	69.14846801757812
1072.0	65.8601303100586
1070.0	64.02888488769531
1068.0	64.23518371582031
1066.0	66.34833526611328
1064.0	69.48628234863281
1062.0	72.61278533935547
1060.0	75.16920471191406
1058.0	77.06954193115234
1056.0	78.47222900390625
1054.0	79.55746459960938
1052.0	80.4515151977539
1050.0	81.21299743652344
1048.0	81.87094116210938
1046.0	82.42845153808594
1044.0	82.84471130371094
1042.0	82.95340728759766
1040.0	82.29756164550781
1038.0	79.85074615478516
1036.0	74.03304290771484
1034.0	64.07337188720703
1032.0	52.35700607299805
1030.0	43.857337951660156
1028.0	41.8696174621582
1026.0	46.607421875
1024.0	54.5048713684082
1022.0	61.607669830322266
1020.0	67.02677917480469
1018.0	71.23002624511719
1016.0	74.54438018798828
1014.0	77.09610748291016
1012.0	78.97527313232422
1010.0	80.10406494140625
1008.0	80.14495086669922
1006.0	78.78081512451172
1004.0	77.04186248779297
1002.0	77.44703674316406
1000.0	80.37541198730469
998.0	83.07946014404297
996.0	84.07554626464844
994.0	84.03079223632812
992.0	83.5734634399414
990.0	82.86662292480469
988.0	81.91206359863281
986.0	80.65876770019531
984.0	79.28645324707031
982.0	78.24024963378906
980.0	77.95126342773438
978.0	78.63311767578125
976.0	80.06489562988281
974.0	81.48770141601562
972.0	82.0048828125
970.0	81.22234344482422
968.0	79.54707336425781
966.0	77.98619079589844
964.0	77.60954284667969
962.0	78.94866180419922
960.0	81.54745483398438
958.0	84.17079162597656
956.0	85.87076568603516
954.0	86.51483154296875
952.0	86.3444595336914
950.0	85.5743408203125
948.0	84.37907409667969
946.0	83.03601837158203
944.0	81.9845199584961
942.0	81.64901733398438
940.0	82.12368774414062
938.0	83.13240814208984
936.0	84.30118560791016
934.0	85.36200714111328
932.0	86.15665435791016
930.0	86.61524963378906
928.0	86.75530242919922
926.0	86.63601684570312
924.0	86.3128662109375
922.0	85.77649688720703
920.0	84.87103271484375
918.0	83.22232055664062
916.0	80.31182098388672
914.0	75.7844467163086
912.0	69.9189453125
910.0	63.873409271240234
908.0	59.502174377441406
906.0	58.614349365234375
904.0	61.83674240112305
902.0	68.1274642944336
900.0	75.47164154052734
898.0	81.8706283569336
896.0	86.27781677246094
894.0	88.82096099853516
892.0	90.18289947509766
890.0	90.91310119628906
888.0	91.29509735107422
886.0	91.4459228515625
884.0	91.42021942138672
882.0	91.26629638671875
880.0	91.04147338867188
878.0	90.81144714355469
876.0	90.63243865966797
874.0	90.54105377197266
872.0	90.56239318847656
870.0	90.71385955810547
868.0	90.99089813232422
866.0	91.37861633300781
864.0	91.8680648803711
862.0	92.41361999511719
860.0	92.95258331298828
858.0	93.41313934326172
856.0	93.68050384521484
854.0	93.546630859375
852.0	92.67315673828125
850.0	90.78805541992188
848.0	88.05570983886719
846.0	85.1562728881836
844.0	82.88154602050781
842.0	81.8156967163086
840.0	82.27698516845703
838.0	84.19065856933594
836.0	86.94181823730469
834.0	89.53623962402344
832.0	91.18495178222656
830.0	91.80441284179688
828.0	91.78502655029297
826.0	91.50898742675781
824.0	91.19937133789062
822.0	90.9668197631836
820.0	90.84258270263672
818.0	90.83707427978516
816.0	90.94307708740234
814.0	91.14668273925781
812.0	91.43746185302734
810.0	91.79585266113281
808.0	92.18792724609375
806.0	92.54462432861328
804.0	92.73149871826172
802.0	92.57485961914062
800.0	91.90833282470703
798.0	90.64502716064453
796.0	88.76998138427734
794.0	86.29612731933594
792.0	83.26239776611328
790.0	79.8055191040039
788.0	76.15396881103516
786.0	72.4681625366211
784.0	68.70014953613281
782.0	64.53709411621094
780.0	59.56258773803711
778.0	53.5059928894043
776.0	46.50619125366211
774.0	39.03074264526367
772.0	31.62014389038086
770.0	24.68511962890625
768.0	18.848848342895508
766.0	14.40420150756836
764.0	11.266565322875977
762.0	8.793830871582031
760.0	7.217216491699219
758.0	6.233310699462891
756.0	6.230068206787109
754.0	6.738805770874023
752.0	7.771635055541992
750.0	8.760261535644531
748.0	10.303187370300293
746.0	13.671565055847168
744.0	19.963623046875
742.0	28.34823226928711
740.0	37.309791564941406
738.0	45.946956634521484
736.0	54.504085540771484
734.0	63.45191192626953
732.0	71.86553192138672
730.0	78.2276382446289
728.0	81.97653198242188
726.0	83.39693450927734
724.0	83.05120849609375
722.0	81.68966674804688
720.0	79.80813598632812
718.0	77.7364273071289
716.0	74.78608703613281
714.0	68.9250259399414
712.0	58.29000473022461
710.0	42.878700256347656
708.0	25.68659782409668
706.0	11.643195152282715
704.0	4.9309492111206055
702.0	3.824615478515625
700.0	3.540182113647461
698.0	3.3072710037231445
696.0	3.840303421020508
694.0	8.451509475708008
692.0	20.599533081054688
690.0	35.91344451904297
688.0	49.75316619873047
686.0	59.27097702026367
684.0	64.7452392578125
682.0	68.4520034790039
680.0	71.8637924194336
678.0	75.0935287475586
676.0	77.7435531616211
674.0	79.56929016113281
672.0	80.64961242675781
670.0	81.09188079833984
668.0	81.90560150146484
666.0	82.66656494140625
664.0	83.2193374633789
662.0	84.0138168334961
660.0	84.9059829711914
658.0	85.89598846435547
656.0	87.02464294433594
654.0	88.27774810791016
652.0	89.63784790039062
650.0	91.02217864990234
648.0	92.4499282836914
646.0	93.7560806274414
644.0	94.78111267089844
642.0	95.33245849609375
640.0	95.1854248046875
638.0	94.24724578857422
636.0	92.63377380371094
634.0	90.73416900634766
632.0	88.86785888671875
630.0	87.1631851196289
628.0	85.65211486816406
626.0	84.414794921875
624.0	83.19869232177734
622.0	81.82518768310547
620.0	81.27066802978516
618.0	82.06961059570312
616.0	83.0412368774414
614.0	83.71255493164062
612.0	84.36837005615234
610.0	85.00704956054688
608.0	85.60838317871094
606.0	86.13980102539062
604.0	86.54553985595703
602.0	86.77342224121094
600.0	86.82279968261719
598.0	86.69319152832031
596.0	86.39507293701172
594.0	85.93716430664062
592.0	85.31858825683594
590.0	84.53948211669922
588.0	83.57842254638672
586.0	82.34932708740234
584.0	80.76775360107422
582.0	78.72607421875
580.0	76.19171142578125
578.0	73.29241943359375
576.0	70.14024353027344
574.0	66.96717834472656
572.0	63.973426818847656
570.0	61.2044563293457
568.0	58.719085693359375
566.0	56.47654724121094
564.0	54.33826446533203
562.0	52.30569839477539
560.0	50.395774841308594
558.0	48.61371612548828
556.0	46.82941436767578
554.0	45.01180648803711
552.0	42.95423126220703
550.0	40.60604476928711
548.0	37.844966888427734
546.0	34.79540252685547
544.0	31.641435623168945
542.0	29.04810905456543
540.0	27.707172393798828
538.0	28.712677001953125
536.0	32.64267349243164
534.0	39.14551544189453
532.0	46.97210693359375
530.0	54.87403869628906
528.0	62.100433349609375
526.0	68.55473327636719
524.0	73.95358276367188
522.0	78.03897857666016
520.0	81.1941146850586
518.0	83.57978057861328
516.0	85.37759399414062
514.0	86.69867706298828
512.0	87.71391296386719
510.0	88.51754760742188
508.0	89.08922576904297
506.0	89.43059539794922
504.0	89.58291625976562
502.0	89.60850524902344
500.0	89.63398742675781
498.0	89.6626205444336
496.0	89.7459716796875
494.0	89.91937255859375
492.0	90.2474365234375
490.0	90.75591278076172
488.0	91.38996887207031
486.0	92.11177825927734
484.0	92.98126983642578
482.0	93.93840026855469
480.0	94.92857360839844
478.0	95.90792846679688
476.0	96.81120300292969
474.0	97.57685852050781
472.0	98.24261474609375
470.0	98.81562805175781
468.0	99.1771011352539
466.0	99.34783172607422
464.0	99.33268737792969
462.0	99.06747436523438
460.0	98.60015106201172
458.0	97.90887451171875
456.0	97.17416381835938
454.0	96.44501495361328
452.0	95.63111877441406
450.0	94.88349151611328
